-0.0415923316253307
-0.0399532228888954
-0.0375372163815857
-0.0327893758383762
-0.0253383945084907
-0.0177535901905724
-0.0131043342875639
-0.0124843733214172
-0.0121877999358950
-0.0059840769147021
0.0114646038956588
0.0399612291033051
0.0735923492439829
0.1022480265265081
0.1170614282989981
0.1145408392606493
0.0993259157863154
0.0801985438782964
0.0646837907909698
0.0544710521137928
0.0476513248800855
0.0417123852474898
0.0358683990883328
0.0289090432862798
0.0189398141499204
0.0041133195969186
-0.0139775857251787
-0.0306728442040130
-0.0405600422508499
-0.0426241435245257
-0.0409278159651992
-0.0419552278786996
-0.0483198572663745
-0.0574432411708586
-0.0642004161109265
-0.0667468241235602
-0.0667116922096490
-0.0661101429573350
-0.0629386403939253
-0.0539634510883292
-0.0410367243373295
-0.0367099572919987
-0.0570883864419312
-0.1035542385276166
-0.1426067490030459
-0.1083852428316946
0.0630647300384013
0.3798379620413655
0.7631816542388608
1.0708236475525250
1.1733279389725950
1.0317326257442732
0.7218340974668437
0.3837179067240473
0.1375821255209256
0.0241304782311091
0.0066647075834150
0.0169614904984711
0.0061084332222464
-0.0348750566796146
-0.0850437760595382
-0.1195753010604466
-0.1282685954598156
-0.1195074177763941
-0.1094656763583593
-0.1099516970185967
-0.1211859057436406
-0.1352716385398952
-0.1431535962713593
-0.1417565687127009
-0.1343687025567267
-0.1278275613710662
-0.1267995217880317
-0.1317223088114585
-0.1387372853759805
-0.1435122279674401
-0.1434030036416258
-0.1391815090805575
-0.1331752870754680
-0.1281873387295498
-0.1255136261240622
-0.1255448330632090
-0.1274157740392479
-0.1302305722945513
-0.1327108379356021
-0.1343179964642189
-0.1345611807464044
-0.1335013897505587
-0.1308546016892425
-0.1270029376388430
-0.1223861446757940
-0.1179104637471774
-0.1138124428442219
-0.1105301390852217
-0.1080310607274311
-0.1060274853594657
-0.1027835945068965
-0.0967470888335783
-0.0875289471933753
-0.0773809303387017
-0.0112872957498963
-0.0004562830689705
0.0120965976110792
0.0237365509096056
0.0321167539512959
0.0350086244692106
0.0324411786873541
0.0273869178457598
0.0260987126602105
0.0345944697435444
0.0556646837846294
0.0856788582115478
0.1159484217579707
0.1360769035616015
0.1401732998995040
0.1291972916864789
0.1101819542500148
0.0909977848863225
0.0771618701682561
0.0696999796799098
0.0666657490241951
0.0642840170315942
0.0596993475297777
0.0513566962941525
0.0395934628427889
0.0252639345804827
0.0102107585799012
-0.0037260522033019
-0.0148030114131299
-0.0229143187517460
-0.0284707371331422
-0.0319633760405173
-0.0329064056582004
-0.0317701692890497
-0.0304679257308127
-0.0325380823912345
-0.0398019735598404
-0.0502152108824262
-0.0566772443147506
-0.0518913833153949
-0.0352081841110123
-0.0187711655095623
-0.0224344730411134
-0.0579968212854342
-0.1079987665459631
-0.1189452494154198
-0.0200800167003566
0.2318650314758169
0.6094962192048687
1.0044174217620536
1.2709667145370127
1.3025008136335521
1.0941152632468356
0.7442195500724470
0.3952626741290809
0.1536864448875234
0.0457832626181036
0.0283923645813688
0.0366011256710403
0.0263513485473395
-0.0098686048437269
-0.0557223173627342
-0.0914783383509060
-0.1088176265245979
-0.1113147331530320
-0.1082115244795352
-0.1064421312900809
-0.1087545683779106
-0.1142301285207873
-0.1211168327983276
-0.1271265477394735
-0.1307126866846889
-0.1309374503600736
-0.1286852831526860
-0.1255512896701383
-0.1236337183301621
-0.1237565125165603
-0.1257706411472019
-0.1281322799256596
-0.1296674840324532
-0.1296001084961988
-0.1283318244144654
-0.1262500468982691
-0.1243607867138670
-0.1233655291051522
-0.1237293941968597
-0.1242627410751324
-0.1236079877033710
-0.1211141064316787
-0.1182457239841366
-0.1165379003485771
-0.1167485161166024
-0.1177377285251167
-0.1180919241175334
-0.1162708891166700
-0.1119767930876320
-0.1055483069842548
-0.0984090737591643
-0.0916001751144652
-0.0861480321114671
-0.0417543394420920
-0.0364204702905159
-0.0269783669857599
-0.0149597625144178
-0.0039411346014415
0.0028551943454647
0.0036591473561549
0.0008407651275358
-0.0002067968320725
0.0068899462409742
0.0245036928691138
0.0498314660885476
0.0752683876045667
0.0930899875252800
0.0985449771394852
0.0929740982592915
0.0818129481525914
0.0716272893685636
0.0650611022534597
0.0605688964634017
0.0539350675849218
0.0429613931233713
0.0282477240566181
0.0126584576712839
-0.0023764412171943
-0.0169040125088933
-0.0316829682731504
-0.0451325637394354
-0.0547538583327297
-0.0591069970837534
-0.0607306549969723
-0.0635365532164290
-0.0699888241294339
-0.0782725815873826
-0.0851497136498171
-0.0884505805535767
-0.0893416159627253
-0.0893233308008194
-0.0882781475208566
-0.0836151247337684
-0.0756006201984403
-0.0711586301253886
-0.0830029420793199
-0.1165453005091261
-0.1540599501984695
-0.1466168789746673
-0.0312621101155847
0.2308065120372731
0.6120893134812101
1.0086486644535928
1.2778006194177904
1.3129884453134650
1.1055764285088385
0.7517843570876390
0.3944198161841302
0.1439041009444366
0.0294591468876427
0.0095733755535339
0.0185433862241859
0.0122345118409589
-0.0180130980482384
-0.0574521918004429
-0.0900271192410274
-0.1094807389043124
-0.1196388803918314
-0.1263004137910501
-0.1325892265927926
-0.1375499349299758
-0.1403185157850037
-0.1416486578006345
-0.1441051449525139
-0.1483872428751021
-0.1530437793400707
-0.1548970040779768
-0.1524555560695537
-0.1462568638311254
-0.1394356739457955
-0.1349621770736667
-0.1344601845195860
-0.1362208633456869
-0.1375428373814522
-0.1364062017040445
-0.1338398735802340
-0.1317840866263504
-0.1319166376603534
-0.1335846478115636
-0.1353588443770956
-0.1354048393704586
-0.1336338296547367
-0.1308130852723955
-0.1284775120634156
-0.1267486834359538
-0.1254327011115565
-0.1241007706053394
-0.1234570147712042
-0.1234380848551748
-0.1235131157170718
-0.1222873688828645
-0.1195039464121230
-0.1151177428951801
-0.0500979033280768
-0.0393807720557114
-0.0276559727625360
-0.0171622823009329
-0.0105837615596581
-0.0090925138016381
-0.0113611815678774
-0.0114318964451598
-0.0018495081974915
0.0222173199811139
0.0574737340959648
0.0938585951564560
0.1192976185918173
0.1276827268112402
0.1207216212489476
0.1061083099773392
0.0910835138489463
0.0796488742499756
0.0711539513146806
0.0632181826106857
0.0529944607603093
0.0394637845834587
0.0225594610981791
0.0037922898371675
-0.0151202885500528
-0.0318345606232492
-0.0453514261218710
-0.0555930601772208
-0.0637693131242884
-0.0701640214522427
-0.0747860723785041
-0.0771157535956279
-0.0778220397198517
-0.0777798953410741
-0.0786878491509476
-0.0813782401845709
-0.0855749228652905
-0.0880479570840445
-0.0851399349146740
-0.0760661737288711
-0.0678901712329965
-0.0732529560706525
-0.1018135241721022
-0.1440541636196358
-0.1613382832430879
-0.0918081558943976
0.1174597526929460
0.4679198188895582
0.8820308078571771
1.2226075001248717
1.3561306715234309
1.2285254427555241
0.8982768051435386
0.5037335817572161
0.1827940304550257
0.0044956857900895
-0.0476697284947323
-0.0378499090491005
-0.0267302732352301
-0.0405790174530844
-0.0743868824298991
-0.1104527767693269
-0.1366683104354000
-0.1509160318056152
-0.1576928657439072
-0.1608337475867792
-0.1621553330073754
-0.1620814504012191
-0.1621666408035636
-0.1632321109109009
-0.1648264493998508
-0.1648035056262146
-0.1624708208667365
-0.1586911714522324
-0.1556913223270067
-0.1542688405263130
-0.1541877970973391
-0.1540668597692353
-0.1535032631096720
-0.1524237705058092
-0.1513735032831983
-0.1498564433360036
-0.1477032484885419
-0.1451581287062036
-0.1438193895226279
-0.1440460738327708
-0.1446105100434557
-0.1426900160573300
-0.1372988277252948
-0.1297044149965876
-0.1233901506306982
-0.1208097470570642
-0.1226012965146091
-0.1263487491481847
-0.1287297226712626
-0.1265812020994682
-0.1195996203011698
-0.1097324029916372
-0.1008551420581550
-0.0956531376477340
0.0204860846146602
0.0267617422641635
0.0336644232061120
0.0396244038095285
0.0436462266675358
0.0465414840758923
0.0499538534292025
0.0572975501736894
0.0718679681573301
0.0957354416182026
0.1268243538234511
0.1595574046929099
0.1855742429869038
0.1979963040747903
0.1941086638865828
0.1780215170562086
0.1575385929285824
0.1403946779047541
0.1296704959206451
0.1245422112424329
0.1212450557918074
0.1160500055035071
0.1057858892224394
0.0900383363688265
0.0704268249777571
0.0503232163880593
0.0319828691729440
0.0165829812222094
0.0036105300655094
-0.0071356828043059
-0.0156616265870921
-0.0206848213860848
-0.0217303086039325
-0.0196974925494365
-0.0180352744381038
-0.0197070036652757
-0.0255393395564968
-0.0322941541564716
-0.0352592469522886
-0.0307141417397922
-0.0210488499833329
-0.0157779745913731
-0.0281794637644382
-0.0618054052352093
-0.0968685129486359
-0.0852471889853074
0.0310325823653288
0.2839706242606340
0.6419317776793410
1.0029946232642513
1.2324967739987958
1.2343953083115236
1.0081018154292718
0.6520984814046609
0.3057901541339622
0.0736754748538439
-0.0204432159329485
-0.0221567849753386
-0.0005703269514968
-0.0020353939458069
-0.0344797628014515
-0.0787506209693056
-0.1130732181941567
-0.1279155739370861
-0.1284936033910073
-0.1255293842968684
-0.1272002802829288
-0.1340381412398843
-0.1417853654007193
-0.1452528712024637
-0.1434705100627592
-0.1393053779806061
-0.1376352316672367
-0.1402687996902857
-0.1451408939403820
-0.1474196309277204
-0.1450679835120522
-0.1403646654539239
-0.1387671516160636
-0.1428721964884468
-0.1506523511954062
-0.1563584695927663
-0.1561362879090339
-0.1500113277622852
-0.1424937202548974
-0.1385194894734493
-0.1412332569761502
-0.1492485724335942
-0.1583896758723453
-0.1630497549987630
-0.1601381936068998
-0.1500430866786260
-0.1377491747877742
-0.1291702292525163
-0.1281358447070018
-0.1328093828788566
-0.1381613933833487
-0.1389247001554983
-0.1337878517753885
-0.1245383195999347
-0.0476185426165248
-0.0470252425166145
-0.0451340250849269
-0.0405534625811388
-0.0315631634420876
-0.0192605290657291
-0.0067259492308028
0.0017429287602131
0.0048611397675751
0.0051656503568654
0.0094514559313119
0.0233338907542247
0.0471290391254017
0.0730656707560143
0.0912587891365232
0.0958322828291118
0.0892676661654879
0.0777997833909665
0.0669499179773319
0.0575861721389008
0.0483495909866436
0.0370385948723024
0.0234108084342689
0.0079440157404732
-0.0078909629574942
-0.0235600184941711
-0.0380152474995836
-0.0501065332399379
-0.0571507547231720
-0.0573198997222453
-0.0506873115118556
-0.0421755160566683
-0.0392143657514062
-0.0480839945540268
-0.0671533154797460
-0.0874981066597508
-0.0981965739017198
-0.0957935308502674
-0.0849859741579256
-0.0739843651060105
-0.0672761042059408
-0.0679311132951779
-0.0812623773372176
-0.1128786714585414
-0.1510759832060508
-0.1517962075064718
-0.0456510126493062
0.2180388173020608
0.6181288405266487
1.0401582226501602
1.3213858706598405
1.3393391286662344
1.0883563214754644
0.6829700931663435
0.2883843761785667
0.0253279952139591
-0.0808250564092445
-0.0852329704658070
-0.0646423779462067
-0.0675124864170200
-0.0980865034898380
-0.1351632729562699
-0.1574726136064040
-0.1602382596066414
-0.1524199822483608
-0.1464898324892514
-0.1474035969691807
-0.1524869713154824
-0.1557710116172559
-0.1548219737419111
-0.1507828551361074
-0.1472561344551921
-0.1464209870525854
-0.1489185632335553
-0.1528976943134834
-0.1566072856317090
-0.1587526191904717
-0.1599286589449914
-0.1602471505568573
-0.1595676654141115
-0.1568853412282621
-0.1528138529195477
-0.1487892848123278
-0.1472368102689120
-0.1487182701269337
-0.1519309008603787
-0.1530832304242014
-0.1497871057747504
-0.1428634770836680
-0.1374775823929048
-0.1380581531542718
-0.1451195558767742
-0.1535255616019378
-0.1573145219775829
-0.1530211029166244
-0.1426720677606762
-0.1308535504383445
-0.1222036726977183
-0.1176171389294615
-0.1157766336908245
-0.0366677513719298
-0.0349057082714364
-0.0309039937084276
-0.0243375798875329
-0.0160247144147463
-0.0085984012424765
-0.0040834137794906
-0.0033640605215818
-0.0041939734692554
-0.0019104716447172
0.0099682770574360
0.0351609969277388
0.0716908116578955
0.1101388662568308
0.1385902776736044
0.1484252487842461
0.1398801514911403
0.1202276394017245
0.0994533456408466
0.0840905410534528
0.0761941335088334
0.0735845492530048
0.0731008530356600
0.0717084497078475
0.0683867613724367
0.0626494397350284
0.0539734410231453
0.0403547180550795
0.0207899348544015
-0.0033911609906246
-0.0272425868597071
-0.0453215238683347
-0.0539344283828174
-0.0541338434039844
-0.0507979443056140
-0.0510110246740744
-0.0585085575073434
-0.0701290742373462
-0.0750435729284576
-0.0635313866612022
-0.0386106926239550
-0.0230069609966892
-0.0457886025476475
-0.1126159811717698
-0.1766945567667888
-0.1443552911318724
0.0745956191375983
0.4923630581006049
1.0022401840459869
1.4125771284060518
1.5511638564247288
1.3695578739443439
0.9726610903278773
0.5470447539669826
0.2461977553802122
0.1144102744568103
0.0964996503620246
0.1040335047449091
0.0808372788110364
0.0230795161771130
-0.0407472175317584
-0.0841623187018400
-0.1006996884435463
-0.1015952249671745
-0.1004965990117446
-0.1037991787555291
-0.1096810978206125
-0.1148632123967833
-0.1181192768753441
-0.1209870137626439
-0.1244430815820722
-0.1281238728351710
-0.1299787351381974
-0.1289490272624783
-0.1254018472684339
-0.1214037833414860
-0.1181988982652960
-0.1162434335767672
-0.1150312300263831
-0.1146404189192092
-0.1145928367090252
-0.1143156209098941
-0.1129555502917872
-0.1111664554156628
-0.1101682455470094
-0.1115151401380809
-0.1153219278141147
-0.1207147076030424
-0.1251497927011563
-0.1262425688046143
-0.1226667343882607
-0.1160311342003487
-0.1091674010390559
-0.1048209833445903
-0.1033468286635360
-0.1036702658516772
-0.1036698165935094
-0.1022053774579357
-0.0987328962256722
-0.0936135702584629
-0.0238603984204036
-0.0224313322665445
-0.0185803489924492
-0.0117278988823422
-0.0028957940942052
0.0059440038111069
0.0116972073180045
0.0124943468602340
0.0090097205191386
0.0064708206913012
0.0122729798207769
0.0320725363051308
0.0641598063978529
0.0996987848486008
0.1269622155197517
0.1388014617580701
0.1347878460844298
0.1199581953249013
0.1003481448342869
0.0816868115169729
0.0678823570176855
0.0608662075278803
0.0586814215617198
0.0566257858961192
0.0490397368394418
0.0335673064538825
0.0120922275429255
-0.0100582679806259
-0.0286371671460869
-0.0421958647629544
-0.0520232220147109
-0.0585080780238267
-0.0605765984778873
-0.0566262997616771
-0.0484062335472798
-0.0413707469880611
-0.0426904419245249
-0.0544869437890271
-0.0698254608842729
-0.0744567880086433
-0.0597415707770434
-0.0354609741351393
-0.0301104465865024
-0.0664590644447611
-0.1275514568251187
-0.1406503798446585
-0.0088496565293903
0.3194058235279210
0.7866529882728096
1.2292213523947357
1.4597822707924455
1.3823318536026101
1.0518976076297426
0.6351161578376949
0.3011819490138231
0.1294485824782553
0.0913626941909039
0.1043132718591884
0.1001096758598765
0.0612512949691880
0.0100989330012376
-0.0233309622274980
-0.0286444966888831
-0.0191519365269698
-0.0194268410884977
-0.0459375712762875
-0.0965890366310106
-0.1522573079841769
-0.1911514134355737
-0.2024708760027100
-0.1919118929372167
-0.1734974813109289
-0.1589333738822739
-0.1508636155728185
-0.1460395444330989
-0.1404268872569859
-0.1338125104820809
-0.1284877718549589
-0.1270069589232219
-0.1288048613303782
-0.1312298080446645
-0.1312647594019177
-0.1286418825462572
-0.1248643752419211
-0.1221439662894397
-0.1211884241674516
-0.1222473412274357
-0.1250988983012568
-0.1300593875983620
-0.1364354282183370
-0.1426137736766735
-0.1455493598563143
-0.1434145235565051
-0.1367543411559575
-0.1293639612031064
-0.1249075226354422
-0.1248517675273049
-0.1271075202510968
-0.1290057468681188
-0.1287762149865818
-0.0681653118546735
-0.0816628471749045
-0.0796362201568255
-0.0672639258813173
-0.0512249959386597
-0.0361669577725796
-0.0241654008362276
-0.0176907613432657
-0.0183798259562345
-0.0248637166131998
-0.0297991296545693
-0.0233041502894382
0.0011382288251800
0.0397827819897712
0.0799935160934202
0.1070827936885610
0.1142242861530464
0.1046389358330514
0.0881150325002543
0.0732881295223235
0.0645278922522671
0.0608778407282765
0.0586375477664127
0.0526371114654723
0.0393945165802714
0.0181254923566232
-0.0077064504070209
-0.0323640679100522
-0.0497365292108760
-0.0575209905845609
-0.0577757393112997
-0.0557210104934557
-0.0549197621913396
-0.0562016140157965
-0.0583963227340130
-0.0617638237136171
-0.0671631470445075
-0.0743221385206825
-0.0788539876809692
-0.0749710877452742
-0.0611017741406349
-0.0476522844700530
-0.0545955584174689
-0.0958971632283125
-0.1537051098120250
-0.1671206469279563
-0.0531799569886679
0.2379938819466059
0.6698450537109509
1.1092552014988786
1.3846487382406076
1.3814591537917660
1.1135852566643394
0.7135012989018148
0.3490540097009825
0.1259101781788557
0.0469450834029028
0.0431128150764985
0.0407302393470070
0.0075223130515708
-0.0445989344578579
-0.0894377420039253
-0.1137632216243365
-0.1244134697638104
-0.1344172790509391
-0.1490257669250352
-0.1619930858406738
-0.1649863524193778
-0.1561844861631749
-0.1429718719636291
-0.1352565551116221
-0.1388505924010733
-0.1512731352725835
-0.1650796478192185
-0.1725782856670359
-0.1710155294376094
-0.1623059472360845
-0.1515907726465013
-0.1435604573002414
-0.1413825399403142
-0.1449875544761677
-0.1522564637663458
-0.1597366239659774
-0.1653998745532357
-0.1685342492848370
-0.1697739339692435
-0.1690369646390981
-0.1661729493063826
-0.1609540870254585
-0.1546419469160651
-0.1487503231889978
-0.1447531270815124
-0.1425171504275777
-0.1414517423889523
-0.1403817082098388
-0.1387839069410144
-0.1360441429525843
-0.1324990725534085
-0.1286358420297619
-0.1254004581396577
0.0020067104674218
0.0037599355539393
0.0073214658649275
0.0117911585170273
0.0140760992415746
0.0132229651640275
0.0128206991102693
0.0210141971794239
0.0440961761798008
0.0810559120932612
0.1218367618261590
0.1539817705630352
0.1694725563427818
0.1687142885889429
0.1570583710317409
0.1408068082023894
0.1236750128660713
0.1078821074847712
0.0946807753436737
0.0852744837713107
0.0786440621126605
0.0714749987750384
0.0589674219566126
0.0390747925848281
0.0138747533866391
-0.0108325053530223
-0.0297656808406981
-0.0402014566579188
-0.0434290806204407
-0.0426449799399109
-0.0414896782212669
-0.0413033915838836
-0.0416980583672695
-0.0414006605706305
-0.0408135357483698
-0.0411018835095888
-0.0431634747445481
-0.0452697506219344
-0.0444191933900230
-0.0385789441461100
-0.0316193155460570
-0.0339231298821416
-0.0570197078055562
-0.0982854411090120
-0.1274223840201438
-0.0865997910480750
0.0825416802960884
0.3960691858374654
0.7933226477138101
1.1456338184134736
1.3140268603572163
1.2289396211330179
0.9342625876615334
0.5628755083081234
0.2564067365673801
0.0896077134096349
0.0468996608622539
0.0593570250157779
0.0614269841129538
0.0274913412272471
-0.0306521339470177
-0.0871659311276319
-0.1250794655709983
-0.1423951402842945
-0.1473038184563979
-0.1485556295433537
-0.1508628282532632
-0.1536886296129924
-0.1550120286489594
-0.1538501721455788
-0.1522021058944029
-0.1526462208293133
-0.1565694157449756
-0.1620504036104135
-0.1656551012820762
-0.1641734257230623
-0.1577048653653046
-0.1490651130738306
-0.1425231803902851
-0.1403537880209835
-0.1425449867700487
-0.1467470506012439
-0.1504867882848992
-0.1514633170019446
-0.1491774577450530
-0.1444681946885793
-0.1396654887015485
-0.1362929920915902
-0.1347438101980424
-0.1334750485161549
-0.1308091460770662
-0.1255475042986625
-0.1189877165254005
-0.1139248178945350
-0.1133524675340990
-0.1171954947564099
-0.1229402460171837
-0.1271737196482317
-0.1287143177450124
-0.1278911846709645
-0.0057744297571972
0.0042896053757457
0.0138920533602117
0.0189388576593371
0.0182513831810542
0.0131748111865018
0.0080688171308722
0.0088853832393626
0.0221939513871327
0.0505027336030513
0.0893668296682581
0.1264643760446485
0.1478403745570992
0.1452696154010927
0.1224396295191703
0.0920307641069482
0.0683117006224678
0.0580135372376204
0.0587671028496763
0.0621899278736576
0.0609343722556693
0.0516715748050848
0.0358930857027423
0.0166035988844617
-0.0029537116800636
-0.0206025649330353
-0.0338980660682212
-0.0412833813551109
-0.0425346747407335
-0.0404863705008454
-0.0391522076997923
-0.0420917590916206
-0.0494407956169683
-0.0588625656222867
-0.0669142552570994
-0.0721556658290043
-0.0741376633401133
-0.0721409238558322
-0.0637215553652570
-0.0492449180802480
-0.0363022929051290
-0.0404297428707646
-0.0735154303839839
-0.1265842590547296
-0.1561527116044257
-0.0935706116118183
0.1197129792930321
0.4825509269631337
0.9080511111018423
1.2479486895614547
1.3672892307519251
1.2213704175395868
0.8832776954524290
0.4979434326612880
0.1986159100153473
0.0410683990628956
-0.0025609180081212
-0.0015016444639262
-0.0119985897026707
-0.0507818635929572
-0.1013425318085672
-0.1397735418220312
-0.1543909155821782
-0.1512455989598591
-0.1446120508695525
-0.1458867095154797
-0.1562867550639279
-0.1695318176073673
-0.1773358774054697
-0.1755335055746200
-0.1646290558784377
-0.1494422059068920
-0.1362543037245183
-0.1312930174271494
-0.1370676098896970
-0.1514737314272746
-0.1678504248665252
-0.1792311367798472
-0.1811257672912788
-0.1742151502572053
-0.1626602087848916
-0.1522057481435361
-0.1464138608754361
-0.1464146092110181
-0.1508775736371298
-0.1581384450593285
-0.1657655526666842
-0.1715782189452878
-0.1734461671812263
-0.1710044628138793
-0.1650144044712207
-0.1579017290772863
-0.1521492992320730
-0.1497777254720006
-0.1498868800782436
-0.1495531487855686
-0.1454371760328530
-0.1375429319511197
-0.1285949255607079
-0.1222103552105312
-0.0204087493930753
-0.0210697990859596
-0.0252131539946407
-0.0270665791665130
-0.0230385931210577
-0.0144793838100674
-0.0068722531696161
-0.0033683962150622
-0.0011748599177984
0.0079572792011944
0.0304041578707457
0.0652299411642186
0.1028034222583543
0.1311946174421961
0.1424462891522168
0.1368331158411989
0.1203876861337119
0.1013343180045534
0.0854535360499650
0.0753162318750382
0.0698337959406496
0.0662455727359069
0.0606052140344441
0.0500716017998560
0.0336483640840384
0.0136735531119291
-0.0060275174809343
-0.0214789885467781
-0.0310456621438912
-0.0350220652375711
-0.0358324814957768
-0.0359518160324138
-0.0371533713604877
-0.0390855154987066
-0.0414112241947158
-0.0448365320065540
-0.0512538108967368
-0.0595915298801689
-0.0648636458304135
-0.0614329486503098
-0.0519357711486806
-0.0504509373697224
-0.0746585161033315
-0.1239200375741319
-0.1603492225451448
-0.1115960705617780
0.0896747794244528
0.4493944748251961
0.8778748558683621
1.2181046107603886
1.3284792272022086
1.1696596290210639
0.8285823064695088
0.4625550684776881
0.2027969080500694
0.0900752550023262
0.0780402185234764
0.0894106234345691
0.0717455005525770
0.0190619923621354
-0.0445365502968293
-0.0923309004930999
-0.1140391095619904
-0.1160477032580915
-0.1121150898362348
-0.1118593789410660
-0.1173223534845329
-0.1249491160318380
-0.1314535380228135
-0.1356195160756536
-0.1382397112250494
-0.1394209041514245
-0.1386867253512231
-0.1351103556964942
-0.1295417771064361
-0.1243447325007214
-0.1228488149660526
-0.1260894128488695
-0.1321309779096195
-0.1364519906287369
-0.1357446442925730
-0.1296811097414718
-0.1219743518968039
-0.1174797702929347
-0.1196994844895044
-0.1276502145059099
-0.1369665029076609
-0.1420905155231971
-0.1404178411295036
-0.1328046527791993
-0.1230278755464610
-0.1146872779194647
-0.1103607216517171
-0.1103632045618247
-0.1136666406149043
-0.1175433143214729
-0.1191923261951232
-0.1163568505716522
-0.1093178355644383
-0.1001356324916483
-0.0429881509017320
-0.0419704484554337
-0.0396252523692335
-0.0362610698663022
-0.0328130604111938
-0.0293268706273256
-0.0257406400153189
-0.0219252130461397
-0.0181447584552325
-0.0129548681407542
-0.0030692305248257
0.0157820921905711
0.0448522862710666
0.0802835973027470
0.1125787758924361
0.1312177336493620
0.1301218027141301
0.1125978509344702
0.0893245668865415
0.0723522148627514
0.0671519038856230
0.0704460008874491
0.0725301152415478
0.0642711058216058
0.0422205510264798
0.0113357384856319
-0.0184867639132584
-0.0377186721133107
-0.0431924847908496
-0.0387692589415073
-0.0327662787094813
-0.0318323025109721
-0.0375069938764916
-0.0456542809276745
-0.0514349914776084
-0.0534845697133871
-0.0550260153474990
-0.0584093053447512
-0.0610630391951836
-0.0569094196640021
-0.0459273910093638
-0.0403699439184392
-0.0593140978496458
-0.1070274735259640
-0.1511954294378084
-0.1214090916430361
0.0549070650008627
0.3947660331927593
0.8189753030930715
1.1729772649494969
1.3083393002995587
1.1755131768838096
0.8556097656794458
0.5064668511509398
0.2620484700482306
0.1626792444030945
0.1577683179298938
0.1659355172098449
0.1355465968559532
0.0667283091235767
-0.0091472390992459
-0.0623258181530596
-0.0849267178557755
-0.0878989539037435
-0.0872934824007381
-0.0917990157966559
-0.1011872539905829
-0.1105754119074050
-0.1166120213773180
-0.1189769156292108
-0.1199389252868676
-0.1216076880697053
-0.1250993011712358
-0.1295702585304500
-0.1335330946907506
-0.1353971458387973
-0.1350085493423704
-0.1330409493520028
-0.1308498995155367
-0.1289499349527916
-0.1274104219677540
-0.1257371532145772
-0.1240651004582549
-0.1223858990793762
-0.1206350400724626
-0.1181598502871681
-0.1152809826536765
-0.1131055859962611
-0.1131165285311114
-0.1150477571169474
-0.1174113530902520
-0.1182207738946946
-0.1167518398854333
-0.1128612431844106
-0.1071730406348874
-0.1004970355673539
-0.0945764451610021
-0.0907829103635070
-0.0894182687877480
-0.0883453022452234
-0.0293694113602311
-0.0292556182763326
-0.0264365043701985
-0.0199654634910409
-0.0098350144796661
0.0026234391274042
0.0136619396225491
0.0193999549891519
0.0186419692050300
0.0158712343514821
0.0193017981332266
0.0363788448976515
0.0674405417919629
0.1044301084867850
0.1345165637072061
0.1484147638941353
0.1449836590032612
0.1307484021648702
0.1139250899308968
0.1003690965470474
0.0916176740697808
0.0863793985883358
0.0812428027915280
0.0726664118717721
0.0580294212034390
0.0376742893333266
0.0145230564229062
-0.0067257129476969
-0.0225716200489490
-0.0318699370521371
-0.0363135303957552
-0.0380262578394081
-0.0384646726783838
-0.0377763292714702
-0.0368328680577262
-0.0376280386401098
-0.0428061326309947
-0.0521094788772062
-0.0607343274115101
-0.0605606194424967
-0.0479151934517148
-0.0312047553962931
-0.0317381203970279
-0.0681334571829993
-0.1315096510055846
-0.1686354849703835
-0.0982840039619772
0.1379239751475791
0.5169815383629619
0.9191982092849855
1.1814415569115377
1.1947688829579477
0.9740194066475214
0.6453567472169544
0.3587024859055495
0.1966465495199100
0.1444234069860701
0.1323623715995585
0.1009663161058134
0.0373520298953798
-0.0353288479111834
-0.0894214354111535
-0.1157380206026924
-0.1228682754098339
-0.1246305325896713
-0.1283911430263915
-0.1338675502158050
-0.1372797553638293
-0.1371988238241176
-0.1354585713157249
-0.1355286067948854
-0.1387108924290546
-0.1437011739185320
-0.1474905164927657
-0.1482752210014388
-0.1460133725510822
-0.1427603688663314
-0.1406682414273022
-0.1409470274343601
-0.1424669311292955
-0.1433803977543202
-0.1423277172936926
-0.1399056687009591
-0.1372393358887270
-0.1353804654327913
-0.1341386055207761
-0.1330057389379908
-0.1312310306115462
-0.1291730846438639
-0.1275790161069534
-0.1270522424418749
-0.1263999623583677
-0.1240872762717342
-0.1195433040141730
-0.1143254349411304
-0.1096967672643319
-0.1055414651901167
-0.1002240415272921
-0.0931185840257490
-0.0848668110080387
0.0065961166438672
0.0069003737789065
0.0120513094476000
0.0203269283158493
0.0275518514265045
0.0299148947927441
0.0256705072160014
0.0174651061578478
0.0112106673900759
0.0149402698848502
0.0344601422878095
0.0700849151390559
0.1136970273537414
0.1521446627387585
0.1730227982859376
0.1719502408233585
0.1535579803997875
0.1288343381233615
0.1083427820903911
0.0983474105713677
0.0982616491050674
0.1026877629668168
0.1036012751428740
0.0949462860243842
0.0747925499794005
0.0470188346804570
0.0185334858039293
-0.0033948231220495
-0.0151891382348527
-0.0174881785122405
-0.0151213209186834
-0.0133783312150864
-0.0155766339899393
-0.0209141563598981
-0.0273145016304598
-0.0336411083871887
-0.0410479436035278
-0.0491043645470067
-0.0539998852855284
-0.0499754125873200
-0.0374732342338103
-0.0278956091571722
-0.0395897843505162
-0.0787755109979411
-0.1195108336152138
-0.1001346971750831
0.0452962661042175
0.3347253751209748
0.6994108263076202
1.0015904883239841
1.1076556006252489
0.9734434522131579
0.6737029707404867
0.3530585153574196
0.1328501194958193
0.0474450811405273
0.0478958484194012
0.0591992986146380
0.0356317926043779
-0.0206877183024917
-0.0811943292840637
-0.1213162822906669
-0.1377984595847716
-0.1427764008620947
-0.1492741693085764
-0.1598045748155776
-0.1686963710661136
-0.1697759985363446
-0.1635106657870308
-0.1552766166475952
-0.1512720107427070
-0.1536368816606127
-0.1607722171970353
-0.1685371665939149
-0.1742660742289297
-0.1777551827585320
-0.1811813775606687
-0.1852788592409346
-0.1889062117497491
-0.1901067840184099
-0.1898029234861110
-0.1907506853807896
-0.1953188309572295
-0.2018496283345240
-0.2062473658924678
-0.2047726499456154
-0.1985988172401308
-0.1929681854397864
-0.1938400518520604
-0.2017756537151556
-0.2118385020616328
-0.2170641696530864
-0.2147409240516980
-0.2066577020872455
-0.1969626380050831
-0.1880366118639241
-0.1808368640329434
-0.1751216983554964
-0.1712909180815861
-0.1694805007772004
-0.0019448355164309
0.0040053376860834
0.0108340102928876
0.0171379945721523
0.0212320539633503
0.0214246455280254
0.0193047341325480
0.0204594692930761
0.0329021877615306
0.0605066025384897
0.0991440638598012
0.1371789315617292
0.1631051613010652
0.1716325533187360
0.1658887986163027
0.1526015792837702
0.1378729205763035
0.1245229159185516
0.1139669798239168
0.1066465783489224
0.1022061128512664
0.0977356844026296
0.0896006836466273
0.0757871090010780
0.0585977534917589
0.0422334294618848
0.0298297818600059
0.0208213662094952
0.0131885728687514
0.0055516552329487
-0.0007643657131487
-0.0035386514655997
-0.0013437191441802
0.0037833373069513
0.0074050928075188
0.0050412067855691
-0.0031562283901042
-0.0116816146219282
-0.0122019098550170
-0.0014004338809588
0.0129659685682762
0.0115647720936613
-0.0232436391706827
-0.0861892953125226
-0.1321344901620293
-0.0858428144467829
0.1177248217440678
0.4790491319306829
0.9072004923626256
1.2485822845778483
1.3673768544565759
1.2255260471679534
0.9062512670163373
0.5591297629764288
0.3095637167022796
0.1961899008542159
0.1760493773186700
0.1770130149081672
0.1520518804036888
0.0973898224202039
0.0367946983082897
-0.0073145699103659
-0.0297578377737299
-0.0407031711975376
-0.0518452758936565
-0.0671663988381347
-0.0823891562035121
-0.0922144604780609
-0.0948671276440734
-0.0929527282170779
-0.0898357525968394
-0.0877827834987829
-0.0868079241244451
-0.0864487629039742
-0.0863553513120954
-0.0871833790382901
-0.0891103051278479
-0.0918304761352207
-0.0942014619498090
-0.0956892132179639
-0.0959824841915362
-0.0954583012912187
-0.0944584528991469
-0.0939748568868515
-0.0945290873556603
-0.0961209525043489
-0.0975570654137322
-0.0979726650082276
-0.0969023933403624
-0.0948040617412059
-0.0919131497788307
-0.0888051583759869
-0.0858788277883947
-0.0837428205567405
-0.0819545290810250
-0.0795032649674188
-0.0748759194384275
-0.0677722270278141
-0.0589130963685873
-0.0501593923348577
-0.0115249038855530
-0.0081878251600103
-0.0071820237311928
-0.0080884311842890
-0.0106424453986750
-0.0139891917078466
-0.0141580913074028
-0.0050403187559719
0.0183972429540538
0.0542608721370821
0.0928610687132897
0.1210476053680934
0.1310755167092834
0.1243791627567454
0.1094841546857753
0.0947858102133109
0.0846684073601509
0.0786716324183770
0.0745908022241378
0.0700886087978315
0.0640575344195370
0.0552807823116047
0.0425808284448674
0.0251680865183286
0.0051419349351763
-0.0131336578366364
-0.0252025491106580
-0.0305491466497783
-0.0323831919961946
-0.0353328898394808
-0.0410755369897658
-0.0478030498758786
-0.0517845923258865
-0.0518699528385728
-0.0506776654651004
-0.0528366721864577
-0.0592047556203684
-0.0650049701714104
-0.0631441024840427
-0.0534889208712290
-0.0477596987460357
-0.0651267214488537
-0.1145511235851114
-0.1754312554104629
-0.1902798353318289
-0.0863339424633765
0.1791511182737291
0.5729508823258294
0.9787448073417506
1.2449860266088706
1.2686741822382526
1.0572117083795480
0.7237014549909672
0.4146098699046743
0.2251423505633369
0.1592558022762853
0.1555948134417229
0.1451620206267270
0.0961884372832894
0.0191407360277533
-0.0558122178977714
-0.1062999997748163
-0.1289410284527608
-0.1351224013583403
-0.1380752842454299
-0.1447212395872661
-0.1538886535613047
-0.1614247630277796
-0.1643109951400372
-0.1632847219043103
-0.1609055856245931
-0.1598280519690951
-0.1604704205598843
-0.1618835565482283
-0.1623519719669280
-0.1612716913469082
-0.1585162682105525
-0.1545147198467711
-0.1491925081176871
-0.1432465382453622
-0.1381345578552712
-0.1364106106364351
-0.1391920272645262
-0.1452315837224286
-0.1507086988999586
-0.1527746222696851
-0.1513669196443559
-0.1495736634919216
-0.1498211838230142
-0.1518564345504960
-0.1521985756549036
-0.1478047466435594
-0.1383907103157539
-0.1277649615859784
-0.1205320641527505
-0.1191112156580367
-0.1213368557081075
-0.1232054997932990
-0.1217265634472083
-0.1172743689874560
0.0125434173614203
0.0205477257093989
0.0305131981812730
0.0398775556147561
0.0463848005859467
0.0496512117581639
0.0534480555258027
0.0637443840419659
0.0862552393004687
0.1209965372858107
0.1606246873907304
0.1920511146380239
0.2047119990428984
0.1963825036919501
0.1747108790490917
0.1505650919962549
0.1321741102399078
0.1212294686175682
0.1154046919092696
0.1107332692215003
0.1047266158694995
0.0954793680408981
0.0818806904939200
0.0630171081333412
0.0406307720818379
0.0185034097371982
0.0010359699458520
-0.0108395939779387
-0.0190179051304122
-0.0262611499031161
-0.0325301639418697
-0.0364651608398682
-0.0371612831790269
-0.0367672082040838
-0.0383397920573952
-0.0442314325948184
-0.0536490270391935
-0.0641868778560401
-0.0722294418029215
-0.0749729058572491
-0.0710661259498346
-0.0647429568824354
-0.0664127399731343
-0.0870921260162768
-0.1212886538426189
-0.1334625038219842
-0.0630055562329206
0.1397304435471908
0.4671582818104388
0.8310450838577248
1.0948115371214020
1.1479183153672070
0.9761507545731453
0.6706009135443132
0.3696867913545451
0.1746975575192371
0.1030193273230592
0.1013923776790781
0.1003176369148039
0.0606686050140013
-0.0125766386038602
-0.0903699867213667
-0.1462529030204682
-0.1728359117895354
-0.1788710461004850
-0.1787368150432297
-0.1811740915902076
-0.1872429186381731
-0.1929758858578404
-0.1958982691088465
-0.1964820903104879
-0.1972896600571953
-0.1989129872648832
-0.2002930100152957
-0.1996136813866832
-0.1971128893797771
-0.1940657560317986
-0.1925205457210313
-0.1929826025040060
-0.1946128344042301
-0.1946549529176375
-0.1915652539350612
-0.1862982522576976
-0.1828639128218006
-0.1838913855328485
-0.1888044514549080
-0.1938204292821758
-0.1964550981659555
-0.1966369070594399
-0.1966969134667743
-0.1978471957145064
-0.1995359087176884
-0.1989141727438634
-0.1941555599137299
-0.1858515953760072
-0.1780406834878020
-0.1743187825545550
-0.1755977704368354
-0.1786755353664514
-0.1797875606808732
-0.0346635873219442
-0.0293030336903388
-0.0220689366439357
-0.0151043755735014
-0.0104846177563972
-0.0091594699962026
-0.0084711345816626
-0.0031199193150584
0.0127533787128479
0.0405659290239957
0.0757315434266940
0.1085610034442931
0.1300368852197542
0.1358548242558702
0.1285284183421607
0.1139326116496036
0.0982251830741846
0.0850101461312034
0.0761922759344380
0.0715895156197311
0.0694866414277298
0.0659843252993176
0.0573212528212041
0.0414793860797793
0.0204384737948904
-0.0012569606210599
-0.0183456844807815
-0.0285614343590297
-0.0330254144728748
-0.0354589451349375
-0.0385227337899706
-0.0427677662622234
-0.0464110909863404
-0.0481363213874843
-0.0480942999770243
-0.0485847525713246
-0.0510966175275566
-0.0543476134199933
-0.0535526219915038
-0.0457556617721515
-0.0355844237632831
-0.0376183375658892
-0.0666843157062073
-0.1205435112281864
-0.1634660481221626
-0.1302525509537396
0.0427747532885384
0.3682262319817161
0.7753551699603446
1.1257180535075435
1.2824095524226373
1.1894199719340233
0.9063412493474912
0.5686230333023101
0.3049371259941747
0.1695148689919265
0.1344653800125617
0.1325787053732592
0.1116823823319555
0.0598376599959207
-0.0033184547405961
-0.0530074006553273
-0.0778704809993123
-0.0836047932975470
-0.0832692330819979
-0.0870066711243008
-0.0960290031167856
-0.1053786614231134
-0.1092732414556804
-0.1064485107105246
-0.0998361225458600
-0.0943736910406162
-0.0932421415502451
-0.0970821837059289
-0.1035514139105448
-0.1093129479630088
-0.1112075982063519
-0.1084897064972279
-0.1026523950494057
-0.0972337292149036
-0.0953738931161106
-0.0985288437301341
-0.1047639560531442
-0.1102513536158592
-0.1112144699695602
-0.1070702533727956
-0.1000998291286695
-0.0941106066576792
-0.0913457795702395
-0.0919948170081143
-0.0940548050903987
-0.0953685213980592
-0.0943563044954064
-0.0912635731828578
-0.0871344939148031
-0.0834903395839696
-0.0808933555579202
-0.0792174658728074
-0.0770799024665167
-0.0730768628093994
-0.0448319922651376
-0.0421955807398559
-0.0358784751058928
-0.0278956961967628
-0.0196891637397827
-0.0118417822495643
-0.0041375349067278
0.0026723232968257
0.0073726753174872
0.0097069539206514
0.0129600588757347
0.0227314677753555
0.0434207925661460
0.0733137424950371
0.1044401911343000
0.1263563189990380
0.1328768073613899
0.1248795718623586
0.1091321110639114
0.0931674092073593
0.0820263718970335
0.0764760346197501
0.0740314349503796
0.0697322896395544
0.0589015747954103
0.0396201267753965
0.0151160339065783
-0.0082342304370752
-0.0247485177256163
-0.0336991416017073
-0.0385930236805888
-0.0438748388204479
-0.0505944512376934
-0.0566667253207852
-0.0597775366620976
-0.0613798717858668
-0.0653306173618575
-0.0730630909458451
-0.0790024379318979
-0.0751296416818434
-0.0617681621055974
-0.0555904750599095
-0.0801264585312725
-0.1405459840034009
-0.1984803265613162
-0.1751655112877627
0.0064970201398224
0.3580614979106928
0.7888013832554486
1.1349710339029393
1.2512688920352113
1.1019525423705914
0.7831056771478677
0.4552876239352448
0.2409586971617161
0.1620844249733177
0.1568460049552828
0.1456314617400758
0.0897608004273291
0.0029214838843869
-0.0766025665238648
-0.1220005032251424
-0.1327331270965549
-0.1266770622190704
-0.1221254918635894
-0.1270884793038559
-0.1385862406381559
-0.1495860270666880
-0.1548601882941034
-0.1542016475930838
-0.1508166161544717
-0.1489555547302145
-0.1506760506128674
-0.1550620690282249
-0.1582761530120119
-0.1564875110153274
-0.1483298884163990
-0.1368203246627941
-0.1271888712675725
-0.1238398732829175
-0.1271526644914710
-0.1342708322737636
-0.1412320449361193
-0.1462234194773699
-0.1496824141591294
-0.1532206880947519
-0.1570411967192989
-0.1599748112018088
-0.1602198677980233
-0.1574507339210067
-0.1526366059095490
-0.1475713430400732
-0.1430211854041897
-0.1388295594441248
-0.1341036626497077
-0.1288029087170803
-0.1234051488128822
-0.1185946760837555
-0.1138554193565030
-0.1082505978928281
-0.0166620171933326
-0.0162735549617960
-0.0190159386263335
-0.0213219731634602
-0.0200113511348062
-0.0152536900490164
-0.0094416807322725
-0.0054101405081455
-0.0037860245514530
-0.0029371029632443
0.0013239007575053
0.0138304001849356
0.0378260844349674
0.0708930526540302
0.1047115156788420
0.1283324283133367
0.1351531309532260
0.1260289585405666
0.1083223304971678
0.0903708882192246
0.0776354286478122
0.0702041760548613
0.0644111260560636
0.0553431811189146
0.0409549577969662
0.0228148598547849
0.0049470201201955
-0.0099799575609317
-0.0217226508718475
-0.0321802529594823
-0.0425207686388097
-0.0523399124027736
-0.0595557970114190
-0.0631755955830716
-0.0644321109764643
-0.0666821973599812
-0.0714753547247248
-0.0762216973203090
-0.0746049824247103
-0.0633825044614261
-0.0492841960580072
-0.0507230491383015
-0.0848382685050336
-0.1450173151444845
-0.1830895131947659
-0.1209925524000628
0.1037978797368373
0.4803499420269854
0.9014523233690477
1.2047260755189753
1.2644544172390098
1.0701371572454927
0.7331455152723779
0.4118950661064736
0.2148625255896902
0.1505361420939609
0.1530534370688885
0.1468740696432952
0.0977846368599178
0.0186717021929799
-0.0563761899020866
-0.1028860830059442
-0.1183178200389812
-0.1167103740034711
-0.1138816653117310
-0.1178366034992566
-0.1269456740376343
-0.1358812034149443
-0.1405809666673460
-0.1410135142671635
-0.1393313999979234
-0.1383852611818963
-0.1395343059749306
-0.1427685883429076
-0.1463382044857245
-0.1484159734371165
-0.1476366610575597
-0.1444744537434097
-0.1402804429292269
-0.1369327220740619
-0.1352112905173342
-0.1352997134641812
-0.1365553873186381
-0.1385239273585551
-0.1401512566073613
-0.1405057780828173
-0.1388039921731385
-0.1359051440146744
-0.1333808577791606
-0.1327494698380312
-0.1334384261757952
-0.1336762853322786
-0.1314833633424654
-0.1268899924306050
-0.1211232049571266
-0.1158352521717544
-0.1112797154319106
-0.1072338962227735
-0.1031355280471986
-0.0989758418607883
-0.0188883944175915
-0.0180156059028646
-0.0130687680539599
-0.0042018450368997
0.0042283422385677
0.0074313092491003
0.0041308835380184
0.0001755720934324
0.0050354593236342
0.0257098972345857
0.0601043349835103
0.0981150649964153
0.1267935172919376
0.1384540865029620
0.1334203885660205
0.1189884028230053
0.1031714154695727
0.0909116396025888
0.0823766802757482
0.0760947760721416
0.0702168598873569
0.0634897334309963
0.0537154305112101
0.0391789859056595
0.0195169229348684
-0.0022940763250383
-0.0216901488437086
-0.0342551123501350
-0.0392606829295922
-0.0393807727325196
-0.0392480453047939
-0.0412235029577235
-0.0451555332846634
-0.0495576530406931
-0.0549477672292635
-0.0625498315753033
-0.0721037803771321
-0.0787864774473890
-0.0761921325404042
-0.0620256364122368
-0.0458241159226621
-0.0474553938887608
-0.0840468695408477
-0.1460159047735816
-0.1832494713439129
-0.1181770617162813
0.1070193049749991
0.4774345483615640
0.8852923972427923
1.1737455412244853
1.2239703090185075
1.0302065432837888
0.7018561211119894
0.3915366811825167
0.2009497150248856
0.1362904036945199
0.1330549649184729
0.1202982805256010
0.0675485512643852
-0.0097009117586509
-0.0785512851919044
-0.1177127643631894
-0.1291895205422501
-0.1283976500193570
-0.1299150414235987
-0.1381322176309833
-0.1496618084493938
-0.1587402533762356
-0.1629486495344586
-0.1629363650894859
-0.1611740499224040
-0.1588913299823443
-0.1566364235399583
-0.1542666449316751
-0.1524639688474742
-0.1514427004029878
-0.1514267429590046
-0.1519839727190919
-0.1535167584677787
-0.1562624916132423
-0.1603456764958721
-0.1639212545173500
-0.1643072200992471
-0.1589693140251200
-0.1490158177673662
-0.1388603502972540
-0.1343066439626967
-0.1373210639753407
-0.1452434044874610
-0.1523144063211324
-0.1548644675626720
-0.1526825252782354
-0.1488407658251882
-0.1456509949883592
-0.1433468103926919
-0.1396326774490846
-0.1332421762262073
-0.1249294748736193
-0.1176412433407896
-0.1130588154236693
-0.0516239030020994
-0.0546211530634773
-0.0544633171445053
-0.0504890244525282
-0.0442293769028399
-0.0373413787249943
-0.0307807507739139
-0.0229492703556876
-0.0113508211911408
0.0070360944745081
0.0331508790426190
0.0654009857285417
0.0983380311665144
0.1254150064255470
0.1410484120693063
0.1440179208302288
0.1367282015049572
0.1244740692472963
0.1117950492196116
0.1014725020003227
0.0932513004968139
0.0860729935811937
0.0782150282318868
0.0684116122030249
0.0547331461270846
0.0364274741219214
0.0141884245108488
-0.0086057661583720
-0.0281973994673920
-0.0412617086351982
-0.0471385531036733
-0.0469497595624470
-0.0437491650163119
-0.0403070437039096
-0.0394527903359628
-0.0429010829477861
-0.0514314320270070
-0.0620539000514207
-0.0686353415251236
-0.0651379413706490
-0.0545314650969744
-0.0519137762290136
-0.0770041337887127
-0.1315503037918679
-0.1799945902716069
-0.1517134705540074
0.0200008814984896
0.3436171677887441
0.7368434974613034
1.0544338157542954
1.1659063043501603
1.0358010514460991
0.7433943353260695
0.4295064756159501
0.2082766037987387
0.1120573530475782
0.0978201931928057
0.0990944788465521
0.0733767740306546
0.0184403284650773
-0.0442608145896576
-0.0931157468743837
-0.1215357387086707
-0.1355832260212780
-0.1450889402831100
-0.1546146043543809
-0.1636925769669465
-0.1699178111090147
-0.1732146512129412
-0.1746192010191600
-0.1755318042594022
-0.1759854694937500
-0.1761464765811822
-0.1757332591018528
-0.1748652855607595
-0.1727980439520933
-0.1691590486781616
-0.1636724302311484
-0.1577211552917570
-0.1527713183423209
-0.1498660083762950
-0.1478548736119006
-0.1455841415938063
-0.1426588863401744
-0.1405269136781633
-0.1399202940154887
-0.1409306902348524
-0.1426169860584623
-0.1446991116774424
-0.1462078968858116
-0.1461512713712168
-0.1432452535261004
-0.1379575490474784
-0.1315413265831237
-0.1261538830196995
-0.1228165280273090
-0.1216117073446729
-0.1204769048735894
-0.1172470023403329
-0.1104701698063558
-0.0242424550380068
-0.0220441868564408
-0.0210859913107609
-0.0193076287514245
-0.0155568950697495
-0.0102279570670149
-0.0059406839260345
-0.0041583214304094
-0.0033056308537026
0.0028981480505205
0.0211683422007290
0.0539283367130772
0.0948277011519068
0.1320976042592676
0.1544143299229175
0.1579366482787264
0.1464766157165228
0.1290101872526010
0.1136656848282337
0.1049372948365519
0.1014297715538197
0.0982025358404163
0.0890831009630465
0.0713672230566693
0.0468957216010125
0.0219817071329714
0.0027109808063856
-0.0078757035650845
-0.0119486880303037
-0.0139146543602533
-0.0180606836240370
-0.0251504953532159
-0.0331985281012221
-0.0385551469274652
-0.0400471928862290
-0.0397440651331116
-0.0421513350261930
-0.0486902445599725
-0.0555603273373550
-0.0552353965868213
-0.0454181756739630
-0.0353498565803118
-0.0443204663335527
-0.0840233028145645
-0.1368030692834712
-0.1458183752083570
-0.0388240823761684
0.2223038497667301
0.5943806601187529
0.9532065743932299
1.1525153959250429
1.1124668498320380
0.8704305916078351
0.5559034596678615
0.3043653875301248
0.1795155038145125
0.1548564104291446
0.1587923712706219
0.1339476163738605
0.0692521638563154
-0.0105777762007745
-0.0740300420493346
-0.1072485134856854
-0.1167559902187704
-0.1187958240510319
-0.1245997689645427
-0.1358818275577752
-0.1474587793746846
-0.1546916381221180
-0.1559576084271225
-0.1532982660893341
-0.1495685746412013
-0.1476731835602478
-0.1483444020822343
-0.1509232106415048
-0.1534511615399715
-0.1551046123351638
-0.1557244627969935
-0.1562753835417900
-0.1570117653476969
-0.1578546456317630
-0.1573571112668178
-0.1545723098008761
-0.1494002079936806
-0.1439964451589840
-0.1406080512451095
-0.1409173436251244
-0.1443585278787822
-0.1494752396294175
-0.1536731031826805
-0.1551590917195882
-0.1529882097376016
-0.1484160858344870
-0.1430362745421503
-0.1384696726631552
-0.1348033256172533
-0.1318001543372720
-0.1282236254013863
-0.1232242163096443
-0.1161298096985513
-0.0000775561114169
0.0006277579293457
-0.0006704426361433
-0.0004808953319051
0.0040310253918254
0.0128427353617969
0.0216808457647172
0.0264497899418862
0.0266591383385059
0.0282462359288472
0.0395540692666441
0.0659913667793671
0.1036606311200278
0.1409847101515380
0.1647250182763765
0.1692668595638341
0.1582689075276766
0.1413757646244808
0.1263504281369804
0.1162160847563598
0.1087426024496472
0.1004942633192078
0.0884900429554698
0.0722236743579836
0.0521269698040255
0.0300319457288431
0.0080717061605594
-0.0105261028625891
-0.0237503724068691
-0.0311354950763777
-0.0347878017556470
-0.0368331412696830
-0.0391001746989177
-0.0419553071422819
-0.0461581348624765
-0.0524220603285782
-0.0620001040484197
-0.0736853155836366
-0.0828172190017234
-0.0815550006722748
-0.0669188507672851
-0.0481487927312112
-0.0474683614356829
-0.0830092768343670
-0.1446521541137142
-0.1789030962151817
-0.1077702238550044
0.1217053407797179
0.4824356718341740
0.8563747263503073
1.0874514408834302
1.0751334892016264
0.8380392533917965
0.5009151532188383
0.2115176679406182
0.0549398294863988
0.0211138709509169
0.0399608703289743
0.0421308061985897
0.0020657402231253
-0.0624332371280516
-0.1175296113200369
-0.1435686652741849
-0.1439062705999888
-0.1363353850348221
-0.1359527589264098
-0.1466335574385936
-0.1611351337710189
-0.1702584930554457
-0.1695805136172017
-0.1626234477061324
-0.1558517204823459
-0.1541085660403974
-0.1569151198021035
-0.1610613293183758
-0.1628857610866141
-0.1617432944601407
-0.1590522009242608
-0.1575281741704454
-0.1579151706900184
-0.1594996669553790
-0.1605198923856622
-0.1608588348849140
-0.1607712669899614
-0.1605369781992712
-0.1588955376325038
-0.1552261167089083
-0.1497017075175706
-0.1443697864520970
-0.1409941667372299
-0.1408072068765244
-0.1426012241069994
-0.1441212543416174
-0.1425672014842567
-0.1374732948190453
-0.1301804755036424
-0.1237848760316880
-0.1201530115842334
-0.1196119632764992
-0.1198504731327110
-0.0423175683991852
-0.0409763583041542
-0.0370357292195145
-0.0308920221111819
-0.0238575549193481
-0.0178340334624302
-0.0129619716234611
-0.0077829947067280
0.0016756934602943
0.0189640750509622
0.0451473947805958
0.0758964503787560
0.1038043225333149
0.1211317490612890
0.1244822340337923
0.1150454633916550
0.0981078797739936
0.0791021169474516
0.0623782995456942
0.0496493102148940
0.0414164810813395
0.0360479398785799
0.0308659297615611
0.0222886446238366
0.0088115485250622
-0.0090237777263893
-0.0283217201991133
-0.0461151002531655
-0.0592590427826238
-0.0664226214969328
-0.0680601741587575
-0.0670639915786557
-0.0657518817670172
-0.0654083589783063
-0.0660649042444553
-0.0689199150853351
-0.0744189245420262
-0.0803535405812411
-0.0801724544434632
-0.0691969996309671
-0.0525237426574238
-0.0494521106892108
-0.0805073950531572
-0.1423311937927296
-0.1856356058959169
-0.1265800686940906
0.1042319215720883
0.4981573902797778
0.9435760917926024
1.2681673137131315
1.3345839901484704
1.1225180555036023
0.7399786814513414
0.3521187838945612
0.0850177304469037
-0.0308465952474783
-0.0454851250946249
-0.0336123475080902
-0.0430189611306267
-0.0801419498482164
-0.1249286023772381
-0.1569048475216890
-0.1693364586068091
-0.1696000201616869
-0.1681553088391889
-0.1706206234445680
-0.1753273748794250
-0.1787280586066283
-0.1789894562733373
-0.1778871571380770
-0.1777446377980797
-0.1800510153329619
-0.1836974602484920
-0.1867943223318212
-0.1872377560930379
-0.1847590914312117
-0.1799861748838739
-0.1746451730755207
-0.1697658130884794
-0.1662041413528660
-0.1636809529238137
-0.1620338325202448
-0.1606214132467290
-0.1594736301634535
-0.1583057590027379
-0.1573372996404533
-0.1561683427202569
-0.1545652964956804
-0.1515788153264012
-0.1469979792099739
-0.1410207851993651
-0.1352536716258290
-0.1310321948645386
-0.1293379359209118
-0.1291864510608670
-0.1286944565102323
-0.1252576986307111
-0.1181307714587100
-0.1083247803588278
-0.0986086071091566
-0.0211316849560197
-0.0188931631169381
-0.0164063945587092
-0.0127790737996911
-0.0076012262200440
-0.0013596578466936
0.0037762186543248
0.0064397523360478
0.0073194080251876
0.0106135722406234
0.0217829531690752
0.0450286887728766
0.0789172535470763
0.1160545396820748
0.1455196694865440
0.1594266155694610
0.1561471891567355
0.1407668538554356
0.1210418919756105
0.1046657300614949
0.0958281551611185
0.0943338991844620
0.0950743377508385
0.0916414853326667
0.0796232741272011
0.0599337356166696
0.0373962306950523
0.0181743986180550
0.0051457167306423
-0.0029524270630915
-0.0101849698451956
-0.0185002006926211
-0.0264014600410644
-0.0305018494930763
-0.0306338465389635
-0.0305542406767239
-0.0351413733855791
-0.0439858714385989
-0.0501598919681901
-0.0449152250661735
-0.0291031185657967
-0.0190227103251581
-0.0390468575448210
-0.0967066593102680
-0.1585297013533357
-0.1483707714533243
0.0144676660865779
0.3549410493881322
0.7986274276075219
1.1894035851294784
1.3691002656633913
1.2733773028984277
0.9709118019856016
0.6163847033574930
0.3504122077797360
0.2242179355466646
0.1952536734372529
0.1843237038840213
0.1380447137112036
0.0552193701083393
-0.0314844215224866
-0.0896976028279026
-0.1109034194780998
-0.1087731708204006
-0.1038318975615527
-0.1076620066147336
-0.1196974523258351
-0.1324182561664718
-0.1401938979561211
-0.1422534500343776
-0.1418194112409251
-0.1417039892148198
-0.1429011904548251
-0.1441399822450856
-0.1441570564365616
-0.1421902577805326
-0.1391009463189504
-0.1361655074202124
-0.1348246288262058
-0.1349770657379056
-0.1355696521038082
-0.1347500060620438
-0.1320227612457311
-0.1283799062063771
-0.1265877428115242
-0.1286267854525119
-0.1344445142435278
-0.1407580253672275
-0.1436398766213703
-0.1406075614668743
-0.1329722351023912
-0.1242657641529935
-0.1184500307009143
-0.1167173138092957
-0.1175870289163785
-0.1178014735549050
-0.1156551778262998
-0.1113594076584826
-0.1064783093097357
-0.1012005024876536
-0.0255598772757131
-0.0201745906644814
-0.0149383938295793
-0.0087426271669546
-0.0004054397959937
0.0100817305879794
0.0200144550610206
0.0269527140311900
0.0311814699321933
0.0375888438833814
0.0522220154723913
0.0782901560204183
0.1117252173095666
0.1427715661405120
0.1607550069940055
0.1614428914296593
0.1483472412447627
0.1298096815571822
0.1126044537788764
0.0999920868873905
0.0915151861590435
0.0854032478695516
0.0787928355589390
0.0693392480159064
0.0552445782735902
0.0366812041569092
0.0151262337109076
-0.0061536565703746
-0.0240018560452205
-0.0360854924171098
-0.0425631153021607
-0.0447427928128126
-0.0449404988802117
-0.0453213376497080
-0.0485630770391302
-0.0558569396259249
-0.0658331260859694
-0.0731709657406285
-0.0722212590212538
-0.0620147158588675
-0.0519676694924242
-0.0583846141715840
-0.0911629376352251
-0.1331979319974649
-0.1324860938028798
-0.0203288877708667
0.2418950057759981
0.6177986357002486
0.9889794695562537
1.2086283773462387
1.1864508844161605
0.9478359572466607
0.6167657040215302
0.3357266731150922
0.1808095133777129
0.1353194228014262
0.1279602894476556
0.0977260069269373
0.0317484784548530
-0.0408194521910085
-0.0852833675592392
-0.0918548102514542
-0.0809744448231372
-0.0820650934085432
-0.1095982580576170
-0.1536289714427051
-0.1922069425849515
-0.2092432944486837
-0.2049546789323148
-0.1904621065591982
-0.1775883287198899
-0.1710908451715204
-0.1702603060829213
-0.1723422888608536
-0.1758024185219036
-0.1791714802542274
-0.1812692462032963
-0.1809430735583955
-0.1787087592078716
-0.1757393266588814
-0.1737089569230814
-0.1729769720658393
-0.1730431373511347
-0.1723529973974768
-0.1706741130552004
-0.1693043745336723
-0.1708388592809894
-0.1757492613648815
-0.1818722374271688
-0.1851111627285611
-0.1831827454849129
-0.1764271804093671
-0.1680558131179413
-0.1613513556055073
-0.1584529839728149
-0.1585414709348305
-0.1593904232339719
-0.1583562157080577
-0.1546295219787909
-0.1485734097769823
-0.0519293665296307
-0.0485732266947366
-0.0478755585206865
-0.0477983623598720
-0.0455276707274046
-0.0394479702487764
-0.0312411865861907
-0.0235429326543314
-0.0174569591528915
-0.0100334436527576
0.0036000620618320
0.0271518099315940
0.0588762390633162
0.0919077032511380
0.1172166216566268
0.1294738305469164
0.1287678065467904
0.1196076097336316
0.1069054576143862
0.0948220924430055
0.0856576323899323
0.0800664349077574
0.0757394241122074
0.0689359712817830
0.0563054519273898
0.0379438800171696
0.0168611207112354
-0.0023819424248422
-0.0170684049594762
-0.0270327929981091
-0.0345182452689601
-0.0410784870097275
-0.0465521371743379
-0.0492035072392630
-0.0491670008086487
-0.0493376306741354
-0.0539657288947778
-0.0631571663031554
-0.0706637058098893
-0.0670379298520760
-0.0506937096090731
-0.0357925608166578
-0.0476766334077983
-0.0990911491071216
-0.1634658751860341
-0.1685667010537262
-0.0310231106563444
0.2828169356258081
0.7090372982844788
1.0981949815480450
1.2912508127121796
1.2154375723476563
0.9279236024577600
0.5753896450049144
0.2989612291915075
0.1585108272134801
0.1228921992493472
0.1199375473891154
0.0949045264061846
0.0379543000007550
-0.0285898876343541
-0.0783425687398826
-0.1015718217899009
-0.1059397317265928
-0.1060965326805388
-0.1113112668188199
-0.1215763657781867
-0.1303330035194806
-0.1321197036223437
-0.1268422004477081
-0.1200110200949333
-0.1175439095754796
-0.1218966998911448
-0.1302584697795540
-0.1375813383485154
-0.1396547456405150
-0.1362057575499360
-0.1299535834263725
-0.1246720197576170
-0.1219463006371267
-0.1212855673132427
-0.1209520602137227
-0.1201729638085660
-0.1188330519265659
-0.1175263950947585
-0.1163874565051338
-0.1156026068112814
-0.1149540050106850
-0.1146836642736808
-0.1148245419332183
-0.1154076367643120
-0.1156032617059941
-0.1148170040049473
-0.1126660294640259
-0.1093628294000762
-0.1043972443882639
-0.0973711334410402
-0.0885727647663920
-0.0800692848263034
-0.0738588725904459
-0.0546857541375964
-0.0591893733757275
-0.0611488540044812
-0.0570858270732088
-0.0456208681888927
-0.0291574088582824
-0.0140822196057869
-0.0063694694671854
-0.0068662493880779
-0.0087550279832322
-0.0019471117722507
0.0198313037289316
0.0533168112580647
0.0878053276423519
0.1116884046622901
0.1195785060211455
0.1133925895625252
0.0996835977550037
0.0849806874813874
0.0739180065141493
0.0680445390062163
0.0660261780324450
0.0633638636490588
0.0546788718408035
0.0364759310402382
0.0102066820088903
-0.0185769384617243
-0.0430833759232735
-0.0596199042277705
-0.0684556994749191
-0.0722386130006366
-0.0722415715864951
-0.0678613592467073
-0.0586764884030804
-0.0482145492090229
-0.0431504799150964
-0.0486702721168809
-0.0622304380382005
-0.0740038321124166
-0.0745739543143080
-0.0665091831109157
-0.0672375502172276
-0.0972871883084801
-0.1557282929679953
-0.2018073477764269
-0.1616075077649707
0.0312878195894772
0.3819237982989330
0.8036715340525451
1.1452624015709068
1.2684305363980319
1.1304126131102983
0.8102818682174834
0.4586526127026713
0.2052481914318917
0.0926683814417430
0.0762778917465626
0.0789667682879508
0.0496994606563714
-0.0131687023974902
-0.0801986062784845
-0.1236837078640367
-0.1383542400087195
-0.1377099941733973
-0.1380145184178562
-0.1454235928913920
-0.1566867232948491
-0.1665743250943983
-0.1738324243385678
-0.1797357279911116
-0.1848589929257929
-0.1872672927742146
-0.1848060148637008
-0.1771391386569318
-0.1670700331581566
-0.1588020087094749
-0.1558485490361175
-0.1584090070319039
-0.1636238463168908
-0.1671344667909993
-0.1662994291363529
-0.1613141296830873
-0.1551692077817357
-0.1510839089528458
-0.1505626904489470
-0.1519030240628534
-0.1518963438000923
-0.1480325908997868
-0.1408151941275174
-0.1329205247798194
-0.1275729538282663
-0.1260191356949344
-0.1271710641798066
-0.1279424969801382
-0.1255836090024142
-0.1189796245930989
-0.1094025561652709
-0.0988261602252986
-0.0889345173738932
-0.0802867487523207
-0.0044546870894923
0.0068663695326134
0.0193035206132007
0.0291877113484748
0.0337592831873315
0.0327290603050685
0.0299164304940632
0.0319291603837421
0.0453047308184940
0.0718361699944940
0.1067916851660814
0.1401833687613433
0.1619860086035625
0.1664444189873565
0.1546678614811724
0.1332491706750335
0.1118252102926541
0.0989229934201450
0.0987439885473355
0.1082946702247129
0.1183721215226105
0.1173576970390146
0.0979458413930305
0.0612090943508078
0.0167497948445051
-0.0225966754429429
-0.0463765750372366
-0.0509444870942300
-0.0396619542070628
-0.0212630641213103
-0.0056964225078038
-0.0008107857663655
-0.0097349697077414
-0.0313954841621262
-0.0611748932508816
-0.0922570875339354
-0.1161624408729684
-0.1254854692426315
-0.1167823887162847
-0.0938793548039010
-0.0683032810326257
-0.0573164294363768
-0.0755692348837867
-0.1219972939120328
-0.1665590007650478
-0.1513704576099976
-0.0138069694224511
0.2721273740217479
0.6615402876376553
1.0388602046559388
1.2664576237140941
1.2575811786106936
1.0276567361407412
0.6841646370566457
0.3624863398372774
0.1520752259021227
0.0634584118020672
0.0476424392140311
0.0444053285342510
0.0201642440964101
-0.0232724429838313
-0.0660960027784796
-0.0926629833069034
-0.1031671312881044
-0.1086828911264674
-0.1196999087239455
-0.1375874973321373
-0.1559868447108015
-0.1670297368994198
-0.1678813249342846
-0.1615847362754607
-0.1543746493421339
-0.1508247608226080
-0.1522110349529073
-0.1569465072426265
-0.1629785019353438
-0.1681437250507050
-0.1706868038562696
-0.1693681646174828
-0.1650460661866229
-0.1602631138719520
-0.1580550818767753
-0.1591716065024008
-0.1615795997751836
-0.1612989704705773
-0.1558590936171107
-0.1462923507385468
-0.1374317513765188
-0.1341759782232864
-0.1380071342536000
-0.1451928878065514
-0.1501818310060194
-0.1500749381882707
-0.1476939955491385
-0.1483497557210012
-0.1542773056656357
-0.1606532693875897
-0.1594323702553091
-0.1465224622086000
-0.1267603504503953
-0.0323540975810290
-0.0275973476759736
-0.0203255755601234
-0.0083454618148570
0.0076700590510370
0.0221797172145351
0.0279864335015757
0.0220784699331763
0.0112665146473127
0.0092636126910203
0.0273660897814992
0.0643972212968592
0.1069376148759622
0.1381898726812798
0.1494700428751356
0.1432478594866762
0.1286322258888883
0.1131077983666747
0.0995152004619156
0.0873934030174466
0.0769567018861360
0.0691208493760984
0.0637259336489776
0.0572646480313270
0.0450694724076355
0.0245257135427840
-0.0016794228069764
-0.0264649090608555
-0.0409093054798042
-0.0394559075459934
-0.0235612017741052
-0.0032633533686572
0.0076444989901757
-0.0008949839900823
-0.0280935640136723
-0.0631805119576896
-0.0921459627479909
-0.1067096527471798
-0.1065515597029647
-0.0964825962574924
-0.0821483897756390
-0.0712225988561402
-0.0741333621999738
-0.0979405903885502
-0.1298674476333353
-0.1265808673051382
-0.0264578025500190
0.2088360005066165
0.5499206199760268
0.8896178262105627
1.0905372246562737
1.0645951744176649
0.8299615469902154
0.4989658235588789
0.2075965650753401
0.0383379179620922
-0.0091782065340569
0.0074373344997179
0.0246913781052606
0.0093967721351841
-0.0347980767915337
-0.0847930745024366
-0.1189930277249076
-0.1305957572833940
-0.1271216588946807
-0.1224072259485018
-0.1258448197316399
-0.1374696218367350
-0.1494112877684900
-0.1540057665386468
-0.1501915170964213
-0.1444856274129242
-0.1437230080302717
-0.1483009054970417
-0.1511928542048616
-0.1458139947937909
-0.1330824964057170
-0.1220220999688193
-0.1212075043317133
-0.1309750894900967
-0.1421343722272231
-0.1443113359949960
-0.1344779461191291
-0.1197469664462613
-0.1103501941104357
-0.1111597587192542
-0.1173929644167727
-0.1197935734748820
-0.1127648536548527
-0.1001738101863459
-0.0917778348015045
-0.0950802746246491
-0.1081343222945143
-0.1216995589034351
-0.1267001060030225
-0.1216938798704300
-0.1122154089151966
-0.1055267543098862
-0.1041861599183285
-0.1052658181522763
-0.0226958650856443
-0.0036091518798581
0.0191829547450967
0.0383213897100496
0.0476643334955628
0.0446087088267166
0.0299402339169401
0.0091205383044469
-0.0082055825051651
-0.0098152224118697
0.0124661447182608
0.0566990327146994
0.1082537395607737
0.1470304969873346
0.1585265566617282
0.1433680651876615
0.1158276154992350
0.0946479677574087
0.0905768447586569
0.1016016280923305
0.1157739091852494
0.1204475165782855
0.1086701847465819
0.0821823475355415
0.0487858105317991
0.0189627422946636
0.0003855110447552
-0.0050588144987820
-0.0024531970117783
0.0003297112361223
-0.0030434720449640
-0.0135268407244365
-0.0279475010750598
-0.0413129255258692
-0.0508084263308030
-0.0565524960655810
-0.0609735420878431
-0.0646524826234501
-0.0650457926624809
-0.0589339270793614
-0.0506410170640198
-0.0550459240482790
-0.0889131550219058
-0.1477424311179826
-0.1873411935819652
-0.1309116046846090
0.0856722134288283
0.4557022082520933
0.8741011950241785
1.1780935973292102
1.2383062467094388
1.0402985416713850
0.6909638031407195
0.3468782231044447
0.1188792610579564
0.0250735080630928
0.0118707622340482
0.0128572037983731
-0.0075018697265380
-0.0464129979867189
-0.0841588871319859
-0.1063233400064041
-0.1135001611559233
-0.1149492313264809
-0.1188313393392423
-0.1254342162229045
-0.1299971697447766
-0.1285759772433660
-0.1235337986192821
-0.1211641669498401
-0.1260959882357590
-0.1352163697009185
-0.1395617834729153
-0.1308941629150945
-0.1104249836272667
-0.0893863081927410
-0.0823469056315672
-0.0952752574956482
-0.1206546439717435
-0.1414561589367426
-0.1437703584000911
-0.1259206715672201
-0.1002186755756312
-0.0836691767591343
-0.0870417755541354
-0.1073373632160309
-0.1315398532486918
-0.1455454330438174
-0.1438121226672744
-0.1303935606720584
-0.1150070028222800
-0.1056489715559269
-0.1055742524913361
-0.1123985204116917
-0.1211165780003394
-0.1256594598521498
-0.1216997718909926
-0.1076502506169566
-0.0868855357198408
-0.0661720590731069
-0.0272313045937979
-0.0200648895267455
-0.0132931701240034
-0.0126508292735080
-0.0173948722619436
-0.0199697674147588
-0.0118302513364963
0.0067652861694287
0.0268902642397664
0.0380149433438654
0.0384368073220912
0.0358198524792448
0.0412766243127352
0.0593586449336348
0.0862242902862059
0.1130722050512145
0.1338569405028016
0.1463580450500938
0.1507087939934685
0.1460126965798177
0.1329401567776913
0.1148655124093671
0.0976252305463475
0.0839774904599949
0.0722220761688348
0.0572422691228681
0.0364490467579907
0.0116111663181331
-0.0116159807733555
-0.0296764662703556
-0.0429067469139329
-0.0540683707102665
-0.0621745434368193
-0.0636024111815088
-0.0575107218160770
-0.0522987061347264
-0.0599114860680687
-0.0846446612830365
-0.1138150580397452
-0.1254900221169691
-0.1066592465024909
-0.0713941362151183
-0.0564468033909489
-0.0937893108151951
-0.1715984967335535
-0.2189838253115133
-0.1331566960727900
0.1522944316142078
0.6033548872856496
1.0734252557438242
1.3709654379893816
1.3678625924722829
1.0781656856225175
0.6447020904756017
0.2485034805616742
0.0060664073014130
-0.0722790499184639
-0.0539671003205592
-0.0201891903614584
-0.0197197058675549
-0.0571119079254340
-0.1109463122087865
-0.1562402319176130
-0.1803760365962731
-0.1839865019899691
-0.1763401050429306
-0.1669276881212538
-0.1622392599509360
-0.1638924904556751
-0.1714810080456726
-0.1825565879753613
-0.1935359417256746
-0.1988792012267548
-0.1956671706939969
-0.1862161046212957
-0.1782688541645343
-0.1772260922237779
-0.1819285998182094
-0.1853788357633890
-0.1832922817067207
-0.1775102291655084
-0.1744978653290084
-0.1773994999991787
-0.1836984962372795
-0.1868462866464053
-0.1834035596241388
-0.1746852405682967
-0.1656080368471265
-0.1592184591483562
-0.1563349920542501
-0.1558218576792951
-0.1575916216997807
-0.1613998684531741
-0.1669964129037436
-0.1719885773785154
-0.1731875857346267
-0.1670021036227536
-0.1535293851103737
-0.1369456816051178
-0.1244757699893612
-0.0772084202017341
-0.0670753989342053
-0.0610024207888997
-0.0681481052517153
-0.0860338528700662
-0.1013335597565308
-0.0994593421844829
-0.0781698347171415
-0.0486730183462164
-0.0270410836002810
-0.0197664820250835
-0.0194700044552853
-0.0101374660249588
0.0184995861157245
0.0628922929228157
0.1065543129289109
0.1327888809969535
0.1343841090485857
0.1166739212518743
0.0900015154667360
0.0641717421464003
0.0451080492530962
0.0365553551889023
0.0377597376330640
0.0423785096431515
0.0386358711630623
0.0180060838362517
-0.0175936848314158
-0.0541746599389486
-0.0769242175498605
-0.0810358647645273
-0.0755857811787505
-0.0736000762862066
-0.0821859984134675
-0.0978065170430521
-0.1125739423123564
-0.1200939568574833
-0.1193060051504153
-0.1113662831298006
-0.0993916478094541
-0.0901288028470391
-0.0983075725649130
-0.1385065176444678
-0.2050099233860652
-0.2491194285033541
-0.1855776735279153
0.0624394143840530
0.4960851078586298
1.0059374126953087
1.4058818058210187
1.5323495288030728
1.3414049342690990
0.9355096418163046
0.4945074036847874
0.1677643712275609
0.0029730602447949
-0.0438931585644923
-0.0482104004040132
-0.0586859007774059
-0.0830104209985716
-0.1069876180611566
-0.1217533293864232
-0.1311244452744925
-0.1434721932030399
-0.1591714011303395
-0.1710594021067122
-0.1720270124067300
-0.1638202559496495
-0.1550989291924097
-0.1551801735338500
-0.1658603230665529
-0.1811349198205993
-0.1906162182672043
-0.1874595241695188
-0.1713212707825814
-0.1486042879694857
-0.1273983503804219
-0.1150383216145132
-0.1147916304889673
-0.1253861500565999
-0.1395714466641671
-0.1484209708328121
-0.1464336042370907
-0.1372081537730535
-0.1305009818576461
-0.1356124733634166
-0.1523206609521526
-0.1703574619032556
-0.1753339449256259
-0.1609991925498849
-0.1341375587767996
-0.1106379107202062
-0.1024519035409335
-0.1104337311144439
-0.1246251389633679
-0.1329134786180745
-0.1267960993806909
-0.1055205211599393
-0.0744348300622414
-0.0425055401680840
-0.0391938242469824
-0.0804810817316799
-0.0828905114445623
-0.0332038892937323
0.0360074844533374
0.0712718272019343
0.0436040430071400
-0.0292072394570645
-0.0964843722177676
-0.1116345426197887
-0.0598708682218901
0.0352418272827464
0.1283009558414470
0.1774045456824269
0.1689277959796576
0.1243184905946441
0.0852099464561934
0.0817595867284328
0.1109303901884902
0.1399279708789420
0.1348793348837271
0.0874405542427525
0.0210913830119861
-0.0286847409726503
-0.0402337767137390
-0.0212836538144221
-0.0008336568483774
-0.0067707848057825
-0.0428897710559275
-0.0864612150728389
-0.1062814449545938
-0.0895103114838076
-0.0512046362855009
-0.0213642855634559
-0.0196073042045534
-0.0433702189617517
-0.0740078544975531
-0.0929966807593410
-0.0906388233522793
-0.0695390793349529
-0.0450315732488873
-0.0446068899317304
-0.0934896122151596
-0.1886548985137600
-0.2751130195750653
-0.2546559136781883
-0.0351343883738124
0.3979160433444887
0.9404305569721335
1.3994998982622870
1.5929432992776893
1.4536778243736808
1.0666882367626700
0.6094628996589430
0.2469403096814023
0.0536199956433667
0.0065063024734411
0.0286607521232178
0.0448492620350596
0.0155917639162406
-0.0550464953503596
-0.1357220882899049
-0.1918396314909312
-0.2061265579341095
-0.1831478617103895
-0.1428930600236072
-0.1079626710745343
-0.0940269647257567
-0.1023388227206545
-0.1205984142404058
-0.1315885407785823
-0.1288373975343612
-0.1230479131787095
-0.1337615749616869
-0.1694197701831590
-0.2168032221742629
-0.2476574463323724
-0.2407486075515868
-0.1988953060370123
-0.1494591176654388
-0.1239466376114518
-0.1353477850262894
-0.1687953652594573
-0.1951393638488850
-0.1924164842660089
-0.1613034261752657
-0.1222085418145250
-0.1007613429162404
-0.1089795358438725
-0.1376759776375006
-0.1631318473897803
-0.1660769317377646
-0.1449724264418980
-0.1160404276336863
-0.0987626509983172
-0.1022281973101054
-0.1198084995761852
-0.1376133852420585
-0.1456604535437679
-0.1441103006239058
-0.0679373113481209
-0.0600560164488870
-0.0367459234755575
-0.0166440082105083
-0.0184498066058920
-0.0421849421810126
-0.0670329768983945
-0.0662086758296592
-0.0291705715293168
0.0298602860891299
0.0816659076353940
0.1041168948064594
0.0959087965005060
0.0740767360398559
0.0568163037072764
0.0499033415845734
0.0456952043444782
0.0359666699164250
0.0221594657783297
0.0145849263025688
0.0196176411474559
0.0311532026226923
0.0334514975422490
0.0149788070051378
-0.0223385554835154
-0.0640783766276031
-0.0949187010887633
-0.1079906130100048
-0.1072049747143946
-0.1001726888791317
-0.0922385703615795
-0.0849373776213208
-0.0803961353463762
-0.0822416219804750
-0.0932224247064911
-0.1106990482982834
-0.1280075963739036
-0.1381242955170232
-0.1379831969904508
-0.1286082769146252
-0.1166027977034396
-0.1146564091819192
-0.1377681553749845
-0.1861433028549931
-0.2252489050357503
-0.1824642249073961
0.0190398986389959
0.4026718835025602
0.8943435554835485
1.3364719373091207
1.5626017158515999
1.4914180609322791
1.1721485258154161
0.7505685309925285
0.3799588868245379
0.1444809553702386
0.0392365210879791
0.0069188269934498
-0.0105266792349245
-0.0393433394247476
-0.0750261651971172
-0.1017888675484603
-0.1123484628256845
-0.1117194046106999
-0.1097123467779827
-0.1110866421278259
-0.1149211194021299
-0.1186109739132433
-0.1222658738119044
-0.1274484918441580
-0.1354863137074668
-0.1453446128208719
-0.1540201069434837
-0.1562956460766776
-0.1479108786358385
-0.1296490655762242
-0.1113489072092708
-0.1074240735544407
-0.1263957489323530
-0.1601572112284480
-0.1866984002233018
-0.1851993516975546
-0.1543804338099944
-0.1152635996396285
-0.0961674440805129
-0.1092666421263053
-0.1408140354012370
-0.1617275145551119
-0.1521053408094421
-0.1168427144907807
-0.0818866020664661
-0.0730955240137734
-0.0975394206926089
-0.1386533293256322
-0.1691315248175058
-0.1686744107297170
-0.1366077993930732
-0.0898340771807023
-0.0515743038805080
-0.0373651913684877
-0.0442168102136458
-0.0413851468614435
-0.0302053149394990
-0.0071695155753959
0.0181513248813442
0.0294061429575168
0.0178785981312211
-0.0059429039014878
-0.0173748167719810
0.0045982203877913
0.0588114097118726
0.1210055849580062
0.1604857241828801
0.1624622677340540
0.1357865013184670
0.1031947449832987
0.0829621524722598
0.0800132816501726
0.0889065115320644
0.1022958468473375
0.1127500264954236
0.1113726856537449
0.0891638964403874
0.0454827572667505
-0.0071953652435803
-0.0481417051957695
-0.0623413317911345
-0.0499814787881378
-0.0258681087441352
-0.0083146528776278
-0.0078853292012285
-0.0212414137170293
-0.0359204813473714
-0.0411677277298997
-0.0379068222886387
-0.0355722823563494
-0.0391469964243782
-0.0391923531886592
-0.0211022232937794
0.0148105617465162
0.0430493201996803
0.0300814433973083
-0.0330617194580656
-0.1060961499674078
-0.1057304296194845
0.0557612182114765
0.4123954027199015
0.9009272465998827
1.3661564190602875
1.6307427934376044
1.5932450873480226
1.2890214980338290
0.8639418976826102
0.4815298461315438
0.2329671230839060
0.1136463387766800
0.0642505718605143
0.0292901184818973
-0.0147760398742105
-0.0654238412746522
-0.1129878752165288
-0.1500683529377941
-0.1725119983445849
-0.1785009166292388
-0.1717539588719835
-0.1618734019445318
-0.1595788159180641
-0.1676506606280642
-0.1782861247798283
-0.1790759364667545
-0.1651460602683042
-0.1452511093752440
-0.1377424017651572
-0.1563775250466874
-0.1979226017244849
-0.2402201779366326
-0.2567087001166844
-0.2360480139726457
-0.1927211029204356
-0.1569234519953336
-0.1529892927922869
-0.1813091911658703
-0.2189361739132236
-0.2360013769489712
-0.2178333614892226
-0.1749402750652725
-0.1351887638956847
-0.1223835551522991
-0.1402351544916693
-0.1718366840850730
-0.1943644365334677
-0.1937294885315360
-0.1713458834268055
-0.1399447410676105
-0.1155435876869544
-0.1083603647835322
-0.1188370829668683
-0.1385583418685275
-0.1568751655206561
-0.1661087514122971
-0.0763417598030745
-0.0908402534866522
-0.0786969851641195
-0.0404828391397362
0.0085135558145504
0.0482984603474495
0.0651165739837809
0.0581931145287646
0.0370460708280627
0.0155298243264313
0.0061727198787430
0.0185587651060861
0.0558270243669976
0.1102836992303314
0.1612050252013738
0.1836757241901998
0.1636843627796897
0.1099822503365739
0.0497105870329412
0.0113343834633454
0.0053162912373751
0.0192632881662649
0.0293140303097122
0.0200762523516324
-0.0054747354604058
-0.0316444301088480
-0.0460994099697452
-0.0491232569926516
-0.0508066893684763
-0.0592372791969840
-0.0734084600965493
-0.0847267817460192
-0.0863328843731766
-0.0794282193844835
-0.0730541109267772
-0.0759795156595757
-0.0894457609112837
-0.1047479372479011
-0.1101422485970893
-0.1011595027344219
-0.0888524724124524
-0.0952001843531700
-0.1352403040395949
-0.1917427657709370
-0.2036100256661083
-0.0845003832068905
0.2243220967343867
0.6962126033498303
1.1990316999448229
1.5449907615065641
1.5902113317943845
1.3222920982515931
0.8687729270092692
0.4190487545387094
0.1144433197790328
-0.0142138056272514
-0.0299504276806222
-0.0208711772060617
-0.0398354087565342
-0.0875774592980992
-0.1369797082651139
-0.1652945179342545
-0.1703596292481711
-0.1643497230327507
-0.1607290780966073
-0.1655055615076637
-0.1780848410458746
-0.1942015328975505
-0.2087145441343191
-0.2159448141296491
-0.2123786257073124
-0.1995457483016529
-0.1860533840816234
-0.1827939354874005
-0.1951649224984649
-0.2168569989410376
-0.2337880498815026
-0.2341878047625753
-0.2186148242080844
-0.1997512133904042
-0.1939210301993768
-0.2081941663690008
-0.2339532661202925
-0.2505211479845283
-0.2403333233627385
-0.2033290204673286
-0.1599348804556532
-0.1362345851368822
-0.1446159993110042
-0.1741094191170968
-0.1999471133459660
-0.2020245188831269
-0.1796242562829316
-0.1497923143034266
-0.1333698976638699
-0.1381643769862292
-0.1547046749426506
-0.1653550762453410
-0.1597594152010623
-0.1413488216705310
-0.0392306124873487
-0.0340568982519983
-0.0320808756693092
-0.0307013812545697
-0.0267694575011910
-0.0196780747461212
-0.0123634338082243
-0.0071500844755666
-0.0025008837379274
0.0076485123402342
0.0289529210706905
0.0620106795119766
0.0998815049178611
0.1320524957733513
0.1502457020958343
0.1536915561292263
0.1475741040684764
0.1381339877275168
0.1274360756894267
0.1146314645312366
0.0995103018694694
0.0851033484164337
0.0742016239092973
0.0659105750707343
0.0550710773271369
0.0375411472691466
0.0140705848471639
-0.0093098458656246
-0.0264748573736374
-0.0350307967937649
-0.0375736952284243
-0.0382264028229724
-0.0401724385273879
-0.0441654151045167
-0.0502169515589757
-0.0580084684919473
-0.0672066561394035
-0.0755770398816251
-0.0791184851523499
-0.0735748426411612
-0.0600038300263494
-0.0484251940115993
-0.0555052728101786
-0.0894319416458176
-0.1299103459539433
-0.1177822847644876
0.0247239587269331
0.3442666648166139
0.8021012209064472
1.2622291776792396
1.5458936983462135
1.5315694851703916
1.2312449450604206
0.7859679933959443
0.3785655198954806
0.1295618470997018
0.0469342216905416
0.0558120501161960
0.0685420515731139
0.0404613860781381
-0.0214116110608698
-0.0841204798149980
-0.1217610719940773
-0.1306116243298012
-0.1250548512641001
-0.1217808589236800
-0.1281978766289704
-0.1401729945457141
-0.1499565367643565
-0.1535616671235613
-0.1533310703830038
-0.1533070885209782
-0.1554839098259417
-0.1585016583213339
-0.1606143873402664
-0.1611931825260150
-0.1616475052167220
-0.1634673479681595
-0.1670986715667686
-0.1704799229220940
-0.1709655205398521
-0.1672791215580772
-0.1615539381035093
-0.1572324536129980
-0.1568131408352252
-0.1595261656897105
-0.1626972968065775
-0.1632104107597862
-0.1601248813192498
-0.1546392533485908
-0.1496334692708337
-0.1469430025214244
-0.1467134270359342
-0.1472153784450430
-0.1470407940396352
-0.1454667958920109
-0.1429415597232334
-0.1395760033739346
-0.1352803290865399
-0.1294406905605954
-0.0498568447791600
-0.0485672598808777
-0.0428713533206481
-0.0345385991776727
-0.0248184418315673
-0.0155999147173008
-0.0084715365508770
-0.0038436959396325
0.0014451074577912
0.0127234929136331
0.0348452502253109
0.0672550876205017
0.1032162807986385
0.1322080238829840
0.1469024627491245
0.1467334042192260
0.1375167039873565
0.1255467723267201
0.1142628798806478
0.1033502340585657
0.0918912796317651
0.0793280323229874
0.0661691531171671
0.0523162635163390
0.0374586119356864
0.0208371700560364
0.0029710758834919
-0.0148141061877936
-0.0304673529050465
-0.0433323591259037
-0.0537561550155226
-0.0628497909201904
-0.0703773998794857
-0.0755319104204986
-0.0777728474543549
-0.0793184502553098
-0.0837519879554838
-0.0931413908748477
-0.1032426593518865
-0.1049974000155487
-0.0915661533310614
-0.0693094797646437
-0.0588779047219024
-0.0814675668050503
-0.1313885304696556
-0.1576058567774427
-0.0748765511826245
0.1851228402768577
0.6110481888240205
1.0830542568286750
1.4171978124374942
1.4655235240771187
1.2092282273007351
0.7720606544130049
0.3434773464662104
0.0654884159653513
-0.0332146542410301
-0.0216298976571694
0.0051741353382231
-0.0099454199558050
-0.0664741350594177
-0.1308352989710425
-0.1718259277512422
-0.1823751290681797
-0.1761753812260984
-0.1721599436667849
-0.1791261075499614
-0.1933797682516299
-0.2050182927559597
-0.2079604633220467
-0.2031175530967134
-0.1966446520656334
-0.1937637187835086
-0.1960178973259190
-0.2006901856674350
-0.2044828310885335
-0.2053268976085436
-0.2036707610818247
-0.2004314643607699
-0.1967500113665587
-0.1931190776386400
-0.1905476238120061
-0.1897686207484373
-0.1918062115214537
-0.1965535769093940
-0.2026499353758380
-0.2063551716519723
-0.2041375946121407
-0.1949900932374619
-0.1828474777392396
-0.1737584770921606
-0.1725323801674719
-0.1787538681924064
-0.1875670605373493
-0.1918720335819026
-0.1876557840025208
-0.1761609317053076
-0.1634717799605620
-0.1547034974683551
-0.1505957343508753
-0.0059332412948578
-0.0061872788346134
-0.0065656516183049
-0.0052855409538703
-0.0019373858984668
0.0033000612687817
0.0092090047460365
0.0149891451600697
0.0200797475236230
0.0259287727209324
0.0351465586414968
0.0511258452504069
0.0752925330590318
0.1067873615991120
0.1411813800115786
0.1720167208449014
0.1920474731925881
0.1973794935273107
0.1885819323945613
0.1707463101875686
0.1498314301921898
0.1312297007121309
0.1175910908592279
0.1090789088122294
0.1025107507229840
0.0937505700545063
0.0791806234944167
0.0584995290913210
0.0342158093749493
0.0116013333802591
-0.0043647046198450
-0.0108241568575689
-0.0099425747984136
-0.0074230365679367
-0.0101869185612499
-0.0214825170112204
-0.0396687568265645
-0.0578838407190184
-0.0677439675589856
-0.0625213453005319
-0.0429462223788629
-0.0199316301232646
-0.0136109785128188
-0.0404643835108813
-0.0940734167085521
-0.1285692579589162
-0.0676783438035736
0.1554287746838771
0.5409473544961818
0.9923336823758634
1.3449230722389680
1.4520715310503527
1.2719141105863523
0.8941532075885630
0.4820018687212350
0.1759112839838918
0.0253249244223873
-0.0088922651083016
-0.0024378392513000
-0.0103326088624838
-0.0447967579079315
-0.0874257492116442
-0.1176217161454640
-0.1294362286404782
-0.1317600294932705
-0.1356200089054849
-0.1455232663071338
-0.1576240584878299
-0.1659983319089181
-0.1669814465844456
-0.1618445587343869
-0.1542389360191381
-0.1485110457834194
-0.1469036741154529
-0.1500165526412769
-0.1559226743737116
-0.1614794488753155
-0.1627087820937410
-0.1584785780764182
-0.1515298260888682
-0.1479888350647286
-0.1518366512112889
-0.1623301515781579
-0.1737394073237509
-0.1803570139617193
-0.1793344006839279
-0.1728825306016049
-0.1655206862324038
-0.1614079145109200
-0.1603580438701361
-0.1593018497276765
-0.1550952981590508
-0.1488204561196985
-0.1441879338585360
-0.1448308376305807
-0.1501458235110782
-0.1561163885777793
-0.1569861762038298
-0.1499971468438064
-0.1366482692238890
-0.0833210120382298
-0.0822628929294315
-0.0808824197275486
-0.0777893405007420
-0.0720183590770337
-0.0651708444422299
-0.0595329790848328
-0.0572199015252045
-0.0578175420463291
-0.0590207912511713
-0.0557594381593622
-0.0426091947539729
-0.0158563786721312
0.0221019912042312
0.0630686813997822
0.0952906434519246
0.1103100730195376
0.1067405480829325
0.0917624596165983
0.0753502762772458
0.0646255252090945
0.0592802000680639
0.0545066049370900
0.0445925670673761
0.0272650692520745
0.0033043912147297
-0.0232240551991910
-0.0475511729172118
-0.0654345333090474
-0.0762256422755340
-0.0818788343508689
-0.0859375422915139
-0.0902640483457147
-0.0955479125850316
-0.1014375609103651
-0.1088713845590487
-0.1185091446224797
-0.1290125488663534
-0.1338777140537889
-0.1258091165530046
-0.1052912451148210
-0.0893825634343615
-0.1037872079591700
-0.1583438189556362
-0.2171614595058166
-0.1967148873206608
-0.0069970380518796
0.3758852782542252
0.8611610577116544
1.2657453222812045
1.4132453717413496
1.2427094960582723
0.8486816768400569
0.4168565471293412
0.1085731069285631
-0.0231318754499712
-0.0308638901032269
-0.0075981741596425
-0.0160754415163413
-0.0640161550944082
-0.1231124063287111
-0.1654471136497964
-0.1829012111328699
-0.1852530872184528
-0.1844877477493774
-0.1853788547646090
-0.1850093319267098
-0.1808011658695537
-0.1742786498770358
-0.1705596881823944
-0.1724379958681882
-0.1787120267684817
-0.1848515671140536
-0.1877469443946683
-0.1868345228152485
-0.1842574362950226
-0.1812977350653273
-0.1778441699390173
-0.1724653970054502
-0.1659856921948475
-0.1611654874557993
-0.1610046299809484
-0.1643368900908124
-0.1670196491428821
-0.1649295376088088
-0.1586080993956770
-0.1517757395081184
-0.1486189378872605
-0.1495044252803584
-0.1517971676395445
-0.1514240872243127
-0.1469696974780716
-0.1397418735335033
-0.1330902911420921
-0.1287230742607242
-0.1266906522083928
-0.1254168593803221
-0.1239590246548343
-0.1211933347172959
-0.1167400710774944
-0.0058337452364629
-0.0011054834747699
0.0090896427469484
0.0201274997289843
0.0282513264921462
0.0323908217953621
0.0352736465648936
0.0396574950140147
0.0467389202795591
0.0564366583598447
0.0716579026325348
0.0970703006747736
0.1344971190599050
0.1769717431759503
0.2115569777902608
0.2260708543840180
0.2169878687811048
0.1902804785227060
0.1590759631071105
0.1361787049023647
0.1278821994689884
0.1297872581437119
0.1318068615839904
0.1256459803119651
0.1107009375496480
0.0904971068167774
0.0676737009301718
0.0409190747443834
0.0098000592097121
-0.0207095678351420
-0.0388268208990615
-0.0343007931101479
-0.0081678437282503
0.0221933853858387
0.0329743209289141
0.0102588379790225
-0.0371515458431984
-0.0825841057087825
-0.0980166741756255
-0.0738090131382603
-0.0260836846660825
0.0091672904040511
-0.0028694413719937
-0.0700132914549818
-0.1515022701382714
-0.1618907507022974
-0.0079245526969807
0.3486541958786250
0.8427314622764140
1.3107303402557067
1.5659476923475952
1.5026988371816088
1.1619927764179476
0.7048228197549825
0.3128303330897932
0.0857828976769879
0.0098166029025250
0.0035529145883912
-0.0047145321941172
-0.0347482491945155
-0.0655277766884630
-0.0765302655128535
-0.0727098933404424
-0.0778203423090579
-0.1073835155321405
-0.1532043826032164
-0.1896995214951852
-0.1963641054950291
-0.1728093552056348
-0.1384502301157706
-0.1169123318217380
-0.1210656933369626
-0.1452076413885107
-0.1712738394180248
-0.1815654345184500
-0.1725890987856772
-0.1563663983309408
-0.1501666721830639
-0.1604029595533849
-0.1785877496499062
-0.1899848012196245
-0.1884721717084251
-0.1809095900850176
-0.1813989363431278
-0.1982629215634455
-0.2264135391176515
-0.2481995372704579
-0.2472792571359794
-0.2229690122154091
-0.1941932503249012
-0.1838251237646707
-0.1994693272322961
-0.2262180428653966
-0.2406215529352192
-0.2291338745898090
-0.1979169826698112
-0.1657142235485809
-0.1512238272754259
-0.1615306002337447
-0.1903294911126668
-0.0308236108079916
-0.0172085424512034
-0.0135362073225663
-0.0138320210560501
-0.0105408192495793
-0.0030194351925494
0.0017021840623088
-0.0050470559196652
-0.0232423866828541
-0.0412004454481252
-0.0413339535736915
-0.0132044329780544
0.0384178262681520
0.0943302090360784
0.1326874529442671
0.1415012836559026
0.1256897620654911
0.1015270885890825
0.0852999022819603
0.0824590818327727
0.0869290626162849
0.0871749874553233
0.0756432019767578
0.0526256834780387
0.0253509095500950
0.0017879702732278
-0.0137324772672759
-0.0224533253732696
-0.0278305085408704
-0.0328138502214527
-0.0381462450836708
-0.0442234267576563
-0.0512222357006342
-0.0591524002916590
-0.0666299639675212
-0.0721378220683387
-0.0738413572444463
-0.0696732767975385
-0.0570600219816826
-0.0376410798227881
-0.0221303896231754
-0.0296163864541000
-0.0714338744815451
-0.1273273588229529
-0.1321496398164311
0.0011611941206131
0.3240427392533514
0.7922842640918114
1.2578744426360733
1.5351093811467404
1.5092396203203233
1.2085165465650149
0.7849759019692737
0.4157697931884017
0.2026371172887182
0.1370725563761638
0.1425478286051066
0.1431924648546028
0.1070481979033782
0.0435351047291988
-0.0226966406991917
-0.0749224997607526
-0.1088243466673622
-0.1267624324735053
-0.1315267029667581
-0.1269205952352219
-0.1189045022025639
-0.1148124591389313
-0.1186927595949125
-0.1293054883039290
-0.1409642156271277
-0.1483191753249022
-0.1495025266134578
-0.1473416890814137
-0.1459394482160664
-0.1473050337089678
-0.1492744473653355
-0.1484738935586078
-0.1437220400746422
-0.1382745559527406
-0.1369918024675787
-0.1425591614796821
-0.1520598850733023
-0.1587680643685349
-0.1568217929838174
-0.1474089889047787
-0.1389210446832807
-0.1410991630861649
-0.1556866213105506
-0.1740493638640692
-0.1830240928816252
-0.1757826106637216
-0.1566362489765326
-0.1377874845504466
-0.1294481632370714
-0.1330351138357390
-0.1408456738642558
-0.1435833892305432
-0.1372614315802862
-0.1253294084759442
0.0097536493063064
0.0103466315378354
0.0110400871868975
0.0163954248248167
0.0271820696762236
0.0395860732591785
0.0496678789176835
0.0580659951056144
0.0711099315591309
0.0951909251110445
0.1302102424067740
0.1671104885923082
0.1934302731407451
0.2014116634488679
0.1931962779520602
0.1778585102644406
0.1644341748558905
0.1558970625288244
0.1496579647046596
0.1414799078233069
0.1294508201565080
0.1137115013326014
0.0948727699108142
0.0728458294865514
0.0485881753789499
0.0251662648506116
0.0070568917766168
-0.0035476885122252
-0.0087836275078043
-0.0141558112331788
-0.0237917929912464
-0.0371808456639505
-0.0492365144748487
-0.0549110397830536
-0.0532981344984457
-0.0488427901579618
-0.0472826561645585
-0.0507260642900556
-0.0550960527564427
-0.0543588394460290
-0.0482014254385183
-0.0474354799346799
-0.0671483928008065
-0.1076640226703821
-0.1340064203406434
-0.0766525452389393
0.1344402268807688
0.5131675899976414
0.9779441257209152
1.3684908443854544
1.5255570280543165
1.3858926936647669
1.0245236707953711
0.6076158443709353
0.2905602211846527
0.1351911392955777
0.1014518540961102
0.1036196337073798
0.0788575000226188
0.0179084259601114
-0.0499401411556917
-0.0937799348712444
-0.1062127323069687
-0.1030711920896357
-0.1041507745218617
-0.1163467753648899
-0.1317308227897380
-0.1396481680323219
-0.1376429722871558
-0.1324083503658509
-0.1312488968000672
-0.1352614133793120
-0.1393385202372759
-0.1386560639920506
-0.1334072517569307
-0.1286115866172479
-0.1286935324789299
-0.1336575503949962
-0.1394224245197111
-0.1425667228250154
-0.1429897655248686
-0.1430820994188441
-0.1441394220841527
-0.1454996613010925
-0.1455661337136460
-0.1437397140073888
-0.1402127739831227
-0.1360768118953418
-0.1329595334453798
-0.1326728361624657
-0.1349839145156307
-0.1372048421901776
-0.1360325754721224
-0.1313573196884759
-0.1265841012390890
-0.1258469011380866
-0.1296998598011947
-0.1345992536911013
-0.1353624398530794
-0.1295577524279896
-0.1063860030558239
-0.1023659099123372
-0.1016875671024059
-0.1021635530631535
-0.1022731791556930
-0.1019439499991066
-0.1005858485010169
-0.0942961800822580
-0.0780308938853482
-0.0506293573400421
-0.0185076271560486
0.0081732967663469
0.0234126859888043
0.0310938756953011
0.0408124574483542
0.0577639331600312
0.0755698598574214
0.0816905487264306
0.0699635540513647
0.0482121403722282
0.0307924382747414
0.0242063241877462
0.0197796802298475
0.0026583993970963
-0.0325969954754514
-0.0740560034030029
-0.1012236128011601
-0.1019074971842818
-0.0837496222693413
-0.0692604945441124
-0.0787377333275637
-0.1128013189981205
-0.1501728728533404
-0.1632069688360759
-0.1411514015207494
-0.1001178298211840
-0.0709211792252286
-0.0732973193157007
-0.1000968992362626
-0.1240684313381332
-0.1226662280798984
-0.0990602959525892
-0.0822631332306886
-0.1016301346767631
-0.1527046821127329
-0.1791669326656223
-0.0929221497315346
0.1711195778088656
0.5946599668061485
1.0566166391838512
1.3807789783293647
1.4326192607186163
1.2011324316066043
0.8062025568469049
0.4226811607432707
0.1778087846422226
0.0924642735816777
0.0991853136397498
0.1088665164419742
0.0731041589377291
0.0019734438024787
-0.0623322989611460
-0.0886121847489369
-0.0807751711426212
-0.0689751676668023
-0.0789978541619728
-0.1099137922756858
-0.1376773516822776
-0.1398619452827191
-0.1160090808527880
-0.0865241087027773
-0.0718657132531222
-0.0738719707222191
-0.0755702956586038
-0.0600701610496500
-0.0289691342550154
-0.0037780965586793
-0.0075674368355237
-0.0443101364048388
-0.0929650020435405
-0.1230096015848531
-0.1176949264521298
-0.0866270651511462
-0.0551315089321241
-0.0406060956915923
-0.0369283485786249
-0.0238909475773381
0.0083365952619816
0.0440792475659712
0.0551859118195155
0.0304083823670033
-0.0070169810433559
-0.0154473790484424
0.0277201080330519
0.1004920323999063
0.1506936982968179
0.1391405927181820
0.0731665549341660
-0.0025527075790734
-0.0463126164256630
-0.1066106541793845
-0.1485002291367284
-0.1582124154475596
-0.1161922784417713
-0.0478279977951403
-0.0033245981190053
-0.0164938237006072
-0.0790238730700284
-0.1475839615084699
-0.1762750330569786
-0.1459368425784463
-0.0721751049985794
0.0103673340151935
0.0706726436980287
0.0969989800270463
0.0966708731813641
0.0858321696240749
0.0762811934194537
0.0697244710625388
0.0602371981353843
0.0432438434189886
0.0211268323993880
0.0019187934269938
-0.0091517434874404
-0.0150367075140670
-0.0250735693585299
-0.0460648844552663
-0.0764666759081385
-0.1070527689592442
-0.1282428565842650
-0.1355964849841615
-0.1314646561826015
-0.1215668952719938
-0.1122199058412294
-0.1079976440831109
-0.1112700489857373
-0.1204055295371543
-0.1298916707174499
-0.1322921741646292
-0.1244551795592190
-0.1124838654356830
-0.1124114829914423
-0.1403328964772770
-0.1955238989254572
-0.2437755575671816
-0.2187692990380417
-0.0505338586162318
0.2841015860636243
0.7223871424237917
1.1230937132346941
1.3331122343493054
1.2738349498618655
0.9872413596598693
0.6046497673398610
0.2660255099851997
0.0494125072283845
-0.0446630291249414
-0.0625798184026614
-0.0546676516893533
-0.0513822028527594
-0.0613087150388274
-0.0820841838051376
-0.1090166459234303
-0.1382487400507991
-0.1646327732093499
-0.1821002626448394
-0.1860404211188392
-0.1772275746611868
-0.1614712083240493
-0.1471853293510334
-0.1406583573019620
-0.1435805040010802
-0.1518078927390296
-0.1585739030826309
-0.1585847373286186
-0.1520063410402746
-0.1429391635639294
-0.1358468106766915
-0.1316676864695476
-0.1290316183877227
-0.1268668761774628
-0.1270902486984335
-0.1324146659538312
-0.1431107437219306
-0.1543215010447931
-0.1592834344806089
-0.1540761316222439
-0.1413798674195527
-0.1278855163176379
-0.1201256986672124
-0.1203946567737601
-0.1270769939090032
-0.1356815924096923
-0.1415124713776812
-0.1407059356128681
-0.1321207462612504
-0.1174829967946514
-0.1019571142683370
-0.0916018050684280
-0.0901328074905000
-0.0479351391066309
-0.0504454282302573
-0.0449342421581271
-0.0330541847066464
-0.0197873820437773
-0.0099844869144760
-0.0066519692626955
-0.0089388384505161
-0.0131956654998241
-0.0138411521887879
-0.0059921360004400
0.0137183863720315
0.0449428960762892
0.0832084653426292
0.1197923263055390
0.1458162895649965
0.1559412299904510
0.1513706483494685
0.1376210049136724
0.1215532384704139
0.1074002164039399
0.0962824152341144
0.0861623974810247
0.0743850445492827
0.0588187270776031
0.0397137363248792
0.0188912375973123
-0.0006237361249400
-0.0169239133173044
-0.0295114784070930
-0.0396448211991015
-0.0479997912723910
-0.0543007766701381
-0.0574521573948837
-0.0585144296397023
-0.0607561030242687
-0.0676344514328507
-0.0773313933711627
-0.0821751355486182
-0.0742261879909530
-0.0570695884868689
-0.0499427200785569
-0.0768271511410511
-0.1395391837332409
-0.1962323344410963
-0.1663330264547224
0.0257787205837965
0.3913766765280982
0.8420591102768331
1.2171192768719958
1.3654613092773604
1.2334250316591644
0.8935638048270761
0.4965052224632417
0.1810850373533748
0.0090475928963721
-0.0422270817242739
-0.0376133137282438
-0.0348612464496258
-0.0569554120017901
-0.0960248788852199
-0.1321989028643153
-0.1523484995946251
-0.1558122846194278
-0.1510264362103511
-0.1466707080525508
-0.1467182479972967
-0.1493517287745933
-0.1515878660269016
-0.1524244160398557
-0.1539223097197503
-0.1576160936378587
-0.1629194631188665
-0.1669873987502690
-0.1679105992038247
-0.1655455695860604
-0.1618872685159222
-0.1588049862140186
-0.1574910836152394
-0.1574089775606637
-0.1577496609094961
-0.1575422812901351
-0.1566158554994151
-0.1546539190310906
-0.1522033191037359
-0.1503596575107747
-0.1509466091821857
-0.1541497947863012
-0.1583920208254287
-0.1607001056634588
-0.1596421784451485
-0.1558380711965744
-0.1520619404871143
-0.1503272466029877
-0.1504266279768586
-0.1488758653748108
-0.1422311947817823
-0.1299027713396426
-0.1159478836731420
-0.1054528176185709
-0.0293873353932759
-0.0247691281902024
-0.0208522238035167
-0.0174247161046972
-0.0127562977486428
-0.0063789162737923
0.0004982864450345
0.0054652380051386
0.0084584735297236
0.0129153944928177
0.0251957073608847
0.0492417142399577
0.0827604070548949
0.1163676155241807
0.1396690656127716
0.1470438983356478
0.1406521786663202
0.1265870822521429
0.1109655920957466
0.0969658351706813
0.0860942895188937
0.0783379294590623
0.0726767594628294
0.0658685906243553
0.0542531161513201
0.0357547535079435
0.0127928099903369
-0.0094916838566997
-0.0263781989132110
-0.0373837911075695
-0.0446741850275818
-0.0502741845580191
-0.0533051699397904
-0.0524631030790595
-0.0485473772431475
-0.0459630322719501
-0.0487118715055805
-0.0565593968039959
-0.0631702327515113
-0.0618761740944487
-0.0534974202897531
-0.0515606761135539
-0.0742653741528113
-0.1259476475911611
-0.1766849206079164
-0.1618058393623420
-0.0103220169888049
0.3041538901066139
0.7249530970675662
1.1184641724696458
1.3360896813360410
1.2956589384660937
1.0294381369393142
0.6611232896542512
0.3313561061054557
0.1232139117776287
0.0376456016129990
0.0209009667651201
0.0146259226861902
-0.0113114304417200
-0.0547365226131792
-0.0986467666714269
-0.1287078926296120
-0.1421131617917432
-0.1444186892589268
-0.1434689402409863
-0.1437018556786139
-0.1461088731885309
-0.1492238767044164
-0.1514925380142675
-0.1513738973362855
-0.1488827766492557
-0.1454835506331286
-0.1440748586604535
-0.1461138568130841
-0.1507894570305393
-0.1549430319470547
-0.1560868923067027
-0.1536210451873662
-0.1497960925033823
-0.1473724237113650
-0.1480337105073420
-0.1504629528970272
-0.1521545745547278
-0.1510004135679892
-0.1473632264483269
-0.1428002440452842
-0.1394531974090462
-0.1383187326083347
-0.1394575277570963
-0.1412563871822469
-0.1421254331022057
-0.1412782914594401
-0.1399831420338706
-0.1395858543656425
-0.1404730550247212
-0.1407187951238215
-0.1377009950715818
-0.1291110113452219
-0.1154962762465368
-0.0336675358403735
-0.0319640861366805
-0.0313783680124070
-0.0302736415807304
-0.0266603525547972
-0.0197311287568669
-0.0118566469330350
-0.0063620183978658
-0.0051358803474002
-0.0058513455501296
-0.0032036785666985
0.0091272185101096
0.0341399124378632
0.0695806783867143
0.1074731076366223
0.1383417735009768
0.1549157875912310
0.1554407808204225
0.1429472128037719
0.1243450008726738
0.1069923513382326
0.0959299262187110
0.0904128749487940
0.0850938794782861
0.0733848830060870
0.0531000009294512
0.0275728328659969
0.0037421244278939
-0.0135080172514738
-0.0237997188303787
-0.0309789832549585
-0.0383410663539353
-0.0461114124050080
-0.0512352297260966
-0.0518514583617972
-0.0498007284748216
-0.0505003084781445
-0.0571663786295932
-0.0667211372885244
-0.0702309905863778
-0.0623477230742826
-0.0502974988535338
-0.0540164320112212
-0.0882755889801277
-0.1380935384922380
-0.1461023902640859
-0.0345824837369519
0.2429416669503806
0.6492292863419562
1.0567130988952786
1.3039383863241292
1.2889225116574385
1.0321045150680326
0.6628022621367626
0.3360762316742308
0.1447019094860272
0.0841890182743431
0.0861762204147350
0.0798543022920069
0.0358100360198512
-0.0325295664586920
-0.0943157123514029
-0.1293201052801996
-0.1373914587684956
-0.1321609855784960
-0.1272127663499076
-0.1285629677704175
-0.1340633833420569
-0.1393912996246852
-0.1418925127254056
-0.1420543980809292
-0.1407919725854020
-0.1387590747226165
-0.1360127921700987
-0.1336493869647045
-0.1328402830408249
-0.1345005646041871
-0.1377321179534685
-0.1407193321004010
-0.1410371367267873
-0.1378751176831170
-0.1321084995152735
-0.1264114104975493
-0.1228699828562418
-0.1225270097568424
-0.1245144660732646
-0.1274063762082146
-0.1293482392951139
-0.1298202978649663
-0.1292194223212630
-0.1285750076166520
-0.1273614017081057
-0.1244500524112666
-0.1191366704982703
-0.1129050085079996
-0.1074666256479680
-0.1036864934491931
-0.1004529870211848
-0.0964824213453885
-0.0905342033433751
-0.0366808402111296
-0.0327791335318509
-0.0286217629650673
-0.0238008024413223
-0.0185097660475924
-0.0133251792148336
-0.0098667031842977
-0.0084781750558630
-0.0070781013977749
0.0000800198555167
0.0186760238281650
0.0503278097605158
0.0890797143188805
0.1246361407103005
0.1473081036152099
0.1536020600421791
0.1461369020493292
0.1317001164654541
0.1163432302458783
0.1032690267364212
0.0915841702151033
0.0791201554115434
0.0640215204770762
0.0465823173717010
0.0277789315890957
0.0091748323949494
-0.0082972889969668
-0.0233895638216474
-0.0353326630709329
-0.0432478075596124
-0.0475814729276572
-0.0496092930851015
-0.0516801473470239
-0.0550119895843728
-0.0599739718742026
-0.0662111018874524
-0.0744096926148365
-0.0841311272789351
-0.0921696987614349
-0.0922319665537519
-0.0818480462784732
-0.0689299682120647
-0.0720067964639283
-0.1044210249704721
-0.1521390126991911
-0.1611069879271513
-0.0570239298576105
0.2063031539565459
0.5958074811148618
0.9910382093609706
1.2364823118986248
1.2313494949401664
0.9916686477354039
0.6395042382481030
0.3237053815295552
0.1348641304386288
0.0705400916566715
0.0666668403142806
0.0558952892473272
0.0100198164029020
-0.0579355314500345
-0.1176011834579144
-0.1493875430987062
-0.1547109392707762
-0.1495190455986422
-0.1484851273110847
-0.1562483516887229
-0.1674281357240695
-0.1748749756889284
-0.1753370256117968
-0.1716342934196738
-0.1683898480432250
-0.1684905299864617
-0.1705765077550211
-0.1719676780496995
-0.1709586141189565
-0.1686709052313418
-0.1665514468135490
-0.1653943384640398
-0.1643555795794706
-0.1629831333078691
-0.1612685427796781
-0.1604782823359532
-0.1614169154299964
-0.1641451800792144
-0.1667356342237209
-0.1674175305288516
-0.1657238303129677
-0.1638307052063841
-0.1638015243122246
-0.1661802694989651
-0.1687603021462794
-0.1690896308737511
-0.1656257602677618
-0.1595745421613314
-0.1532904270467960
-0.1490406472427685
-0.1462803499249843
-0.1428358283340637
-0.1364255552446980
-0.0338090955704759
-0.0355760326935058
-0.0341657524337721
-0.0282400340777325
-0.0208601426252775
-0.0156909693546937
-0.0133101054804741
-0.0088500619431524
0.0041400698890085
0.0292922479663831
0.0634489849399534
0.0985012276529715
0.1250672449767680
0.1381430754398778
0.1383845651043212
0.1309876800187441
0.1209917308686130
0.1113403484307311
0.1020451864202412
0.0923781284778551
0.0812148206326886
0.0680914335564871
0.0524273981570338
0.0344769606066049
0.0149186546117591
-0.0042647865513395
-0.0211172609322745
-0.0340786540144300
-0.0435329697224263
-0.0506233795136985
-0.0566249737232119
-0.0611177859423203
-0.0630600827054423
-0.0616636329795548
-0.0588174514818742
-0.0582824361712905
-0.0637245317235519
-0.0740112040796815
-0.0825058165202944
-0.0805881301470435
-0.0670290618958246
-0.0531698101904752
-0.0584536215693028
-0.0917104651660944
-0.1316535478189163
-0.1220528943785623
0.0031261965939257
0.2751435760153458
0.6517480389292725
1.0189730000785526
1.2406155246378110
1.2325705001717981
1.0106589605428082
0.6797421381887976
0.3694704313439563
0.1654097264140439
0.0779891603477379
0.0624575758891115
0.0617036751854604
0.0412190100860115
-0.0030390608785801
-0.0557972065759513
-0.1003491874905206
-0.1283467952551531
-0.1412280487078288
-0.1446472329938943
-0.1445698882449457
-0.1447857669742693
-0.1475245745900925
-0.1528089283748868
-0.1593353162100116
-0.1645844620739247
-0.1666408947578876
-0.1644570817124411
-0.1591586959950420
-0.1531986204582536
-0.1495626315786969
-0.1490215954079585
-0.1501061070371900
-0.1499714726788338
-0.1474764224492827
-0.1436410368120056
-0.1413802138715992
-0.1425808017041905
-0.1468425567750938
-0.1508874343894550
-0.1516960150321924
-0.1486739560468107
-0.1446208320259114
-0.1424524523922575
-0.1431704773877580
-0.1450747105001446
-0.1462684165382437
-0.1454313576591358
-0.1425769075192552
-0.1381128735658092
-0.1333740319502185
-0.1294544531951501
-0.1267890714158187
-0.1239531200212876
-0.0102275701042452
-0.0089039563432048
-0.0086228415641684
-0.0070077276808622
-0.0020642141038933
0.0051003080087041
0.0113507341274205
0.0149374141025942
0.0193501062717848
0.0316912955517559
0.0573248505779612
0.0938335698665088
0.1311845199731085
0.1570338519462328
0.1644502395593431
0.1548595015383032
0.1360924614271697
0.1166003974376823
0.1017572027208756
0.0925332908678936
0.0871950019736630
0.0823914726972033
0.0746629906248274
0.0613559083428327
0.0427123951838316
0.0220328842284792
0.0042342286729089
-0.0078205709563751
-0.0147021275916112
-0.0195308072806668
-0.0246446752656269
-0.0302921812073905
-0.0350176188802691
-0.0381695072621505
-0.0406829945826398
-0.0445153772960158
-0.0499413883889118
-0.0545821046179324
-0.0543908241057252
-0.0478381319362134
-0.0391885192163752
-0.0392151200944979
-0.0593216312739475
-0.1005549203457744
-0.1406305413953215
-0.1309551429111629
-0.0128206679346261
0.2461129249945948
0.6156945699623306
0.9954191995962107
1.2530888242697455
1.2926825805713047
1.1095445412564817
0.7919206593278351
0.4680867226146497
0.2356007423988334
0.1212448355637323
0.0895183319533937
0.0835011724406991
0.0630625859954665
0.0200034750260089
-0.0312673478648627
-0.0720925534302105
-0.0940566905776227
-0.1013255792971331
-0.1043366980943821
-0.1106638772400773
-0.1211775426778651
-0.1315028560150686
-0.1369942922556651
-0.1359040950384951
-0.1306012507727440
-0.1256260457194628
-0.1250302261831973
-0.1293140967003421
-0.1354424054725877
-0.1389073131567934
-0.1372517320390818
-0.1311123737613868
-0.1236427866576049
-0.1181579835814499
-0.1168099508989409
-0.1195041516734880
-0.1246252043464434
-0.1297981867779206
-0.1331914849364013
-0.1333610839896648
-0.1296059071985408
-0.1222342801445951
-0.1136796886260057
-0.1076692286878060
-0.1074645412822150
-0.1131684528910570
-0.1213576292856737
-0.1264567812115843
-0.1244842716441268
-0.1156437480384710
-0.1047063805080241
-0.0972151598791165
-0.0954726490689753
-0.0098888809679264
-0.0054105596718396
0.0010742182474293
0.0080390830099448
0.0131020576373202
0.0145198274792516
0.0136308638323448
0.0150138843029224
0.0246604709850714
0.0457209408529007
0.0759274974674186
0.1076498611109161
0.1320149197668788
0.1432956338672301
0.1418871201020159
0.1327653897960676
0.1218297159489403
0.1118340836859523
0.1021144779507583
0.0906058455248869
0.0767932106268377
0.0616793173787894
0.0465069125778255
0.0311091225513709
0.0148113079244428
-0.0023379133811859
-0.0184659564675064
-0.0313183867040657
-0.0398457846008176
-0.0453540542133469
-0.0497600364724758
-0.0538599569829659
-0.0566952563032468
-0.0579241518727821
-0.0591314878296299
-0.0629931528625215
-0.0696963284136566
-0.0756353821133441
-0.0753746920141827
-0.0674156780846086
-0.0584560360855708
-0.0626978708289003
-0.0913964792370462
-0.1366641627322417
-0.1591495368259699
-0.0962097364220472
0.1047159928950881
0.4406375024610824
0.8294742282468525
1.1348724227747908
1.2364693600533323
1.1009325298889203
0.8028021442706634
0.4764113079647568
0.2357941655275066
0.1191348455450870
0.0913990531900544
0.0887689694638806
0.0659761847968895
0.0150812968160525
-0.0447934402620069
-0.0909325292088270
-0.1133634722471559
-0.1174342987889846
-0.1149039380427668
-0.1147351995123877
-0.1190168587018831
-0.1256408721827411
-0.1317231886591962
-0.1358889669815644
-0.1378045603454675
-0.1381223198405813
-0.1378987212794001
-0.1385788295495705
-0.1406336837435543
-0.1431477387790494
-0.1438453527028809
-0.1413429234531056
-0.1365186814511362
-0.1325627823748749
-0.1318470987676173
-0.1337823063563693
-0.1349192854328432
-0.1327176767624392
-0.1279081086224455
-0.1242121805079729
-0.1245784130611475
-0.1289652891416679
-0.1342966130966014
-0.1374870242777959
-0.1373046922884550
-0.1349282723752893
-0.1318828028284189
-0.1289079321569959
-0.1254996956878399
-0.1214210928936547
-0.1169406406403044
-0.1127511455125351
-0.1087851301636301
-0.1048230510468009
-0.0485874813835314
-0.0447958728974743
-0.0338937368459585
-0.0198041376011841
-0.0073890421645138
-0.0005537870303139
-0.0001450319456522
-0.0038965547705808
-0.0060881073146541
0.0002211799817660
0.0202751069191063
0.0532914956178914
0.0918883116770022
0.1247784264822424
0.1433822143330838
0.1458236177964912
0.1371943495927920
0.1245453361996286
0.1129133624732139
0.1032926191157473
0.0944398494267800
0.0839049178855054
0.0695174351254342
0.0497415655211582
0.0255838848056246
0.0006662631516433
-0.0195223312357950
-0.0312261935509170
-0.0345439988241921
-0.0341336393771015
-0.0355978742802587
-0.0419065338667564
-0.0509474213807112
-0.0583495127077191
-0.0613127536167083
-0.0616113490178958
-0.0629849722142497
-0.0670873653531228
-0.0703660484740369
-0.0679062467448986
-0.0605442114964359
-0.0603134372679126
-0.0831416858148277
-0.1302249972277139
-0.1686111169038548
-0.1341109965601511
0.0351795856744563
0.3473845754522504
0.7268759218564087
1.0361499272830439
1.1489500731312769
1.0263135763255931
0.7409201342921899
0.4277703043137001
0.2009268176266993
0.0959345172565463
0.0742362303470386
0.0705120541931253
0.0419185969259134
-0.0145686914907976
-0.0754097454775835
-0.1170620386878147
-0.1324479995067493
-0.1312717572599888
-0.1275685641931817
-0.1293159162728390
-0.1355606591319541
-0.1419742261820515
-0.1456342707673276
-0.1471841687982491
-0.1484889082897225
-0.1509740375258479
-0.1539830181400768
-0.1560698252939160
-0.1559822717116048
-0.1543063439249223
-0.1522233886911572
-0.1506485725668817
-0.1489926455583443
-0.1466732040134984
-0.1436657722778725
-0.1412570611904597
-0.1404080550863213
-0.1412784540849906
-0.1424022829485309
-0.1423681760714798
-0.1407017204132598
-0.1389993639945429
-0.1389787251025678
-0.1411885932817243
-0.1439009180215240
-0.1452083587573617
-0.1440402222361774
-0.1409780974517754
-0.1365384177598504
-0.1309732342597942
-0.1238743887798919
-0.1157655544055189
-0.1081040545150264
-0.1034900097222812
-0.0366120076359693
-0.0347962597793057
-0.0329128647280553
-0.0306580904426268
-0.0268983653972835
-0.0214258080140879
-0.0150281365450542
-0.0100443945592403
-0.0084208361983114
-0.0103682105960018
-0.0119578807807052
-0.0063889578427172
0.0127617363324716
0.0454700253673895
0.0837750147019001
0.1150536674298067
0.1304311446424637
0.1292928210515327
0.1186000335117748
0.1060743767747005
0.0956755021746619
0.0863984083290142
0.0761553418801260
0.0639257709671809
0.0504309363718890
0.0357065753745709
0.0192436931852750
0.0006650985282280
-0.0182684993662116
-0.0349309596987361
-0.0467892894780569
-0.0530507796378316
-0.0539861829998137
-0.0518101448759202
-0.0502262648102343
-0.0539202697702615
-0.0645844141213181
-0.0784226656264108
-0.0860853479264358
-0.0800686524754336
-0.0638437655909403
-0.0564027150706622
-0.0796457466493717
-0.1329227704437339
-0.1714318942482572
-0.1174347478720717
0.0916175040997913
0.4435391949125004
0.8315985712049655
1.0999760596572759
1.1347726496494559
0.9345483585387772
0.6089603008367460
0.3044779103989682
0.1171020578372241
0.0518949668836212
0.0495778742110002
0.0439112599208476
0.0052497533771897
-0.0554800421535414
-0.1094548215724348
-0.1371311159935740
-0.1387885255861112
-0.1289978216737593
-0.1221801527435605
-0.1241148918931732
-0.1314410117552513
-0.1381596755570724
-0.1398865399922252
-0.1361212753271447
-0.1290038837370750
-0.1227370271534036
-0.1208492237771439
-0.1247052873262649
-0.1320393459122751
-0.1390878356979980
-0.1422868309331035
-0.1407102541541471
-0.1356453757590697
-0.1302050171958996
-0.1266833721314650
-0.1257758512440963
-0.1260857546139019
-0.1265110762914052
-0.1268153607634393
-0.1279047059571198
-0.1296667369023550
-0.1310212768354586
-0.1301513319620697
-0.1268522448076689
-0.1224214050450729
-0.1191331282430688
-0.1175044221712246
-0.1162564838742715
-0.1129142372495796
-0.1065308725600364
-0.0977461335043000
-0.0886848526417442
-0.0809656597768549
-0.0756553827486776
-0.0158772720439059
-0.0136594727768286
-0.0117060678348957
-0.0095299901415539
-0.0066980180651317
-0.0024772544268685
0.0026901235840011
0.0075287496439346
0.0098637704633581
0.0090705756532116
0.0069121290921506
0.0083410818467446
0.0186682911905725
0.0409218592756422
0.0725224892590886
0.1063760370482683
0.1335453971850971
0.1481452879930990
0.1486251984337466
0.1377715014849515
0.1200397489943660
0.1007338863632757
0.0839307854851384
0.0716567885597779
0.0621021549677641
0.0513688603222434
0.0357652060956034
0.0154523345232903
-0.0061362263562452
-0.0243239764504123
-0.0370511370547920
-0.0447000114096660
-0.0490087425765034
-0.0508687861956757
-0.0518328269702825
-0.0546135646251558
-0.0625797502007365
-0.0751612470622742
-0.0861297277805498
-0.0861219334246421
-0.0724204989469499
-0.0563507931281367
-0.0611253316079068
-0.1019791921208017
-0.1609287250078765
-0.1761581444730156
-0.0688713765803942
0.2014663334743181
0.5876257458552989
0.9577052840437379
1.1596753230051742
1.1120792605572443
0.8535276917867424
0.5154708159619588
0.2365789189362507
0.0857437753432542
0.0428881095516086
0.0409352979090249
0.0230577345075821
-0.0253733227024941
-0.0850028991213108
-0.1291975063216462
-0.1466863813180897
-0.1444457909877009
-0.1379055221339800
-0.1376174984431246
-0.1448899669630500
-0.1542369401147753
-0.1602088023561947
-0.1602941405166082
-0.1559367214864457
-0.1502179236897756
-0.1465377106316993
-0.1460105199448833
-0.1477782917214695
-0.1496198428004844
-0.1505035315647209
-0.1502148133523697
-0.1492091231468574
-0.1472405122209123
-0.1446539888174166
-0.1423469224126039
-0.1421586395810190
-0.1445943458239638
-0.1483921629055350
-0.1504156901448726
-0.1488627052553333
-0.1445351393226278
-0.1408850387671437
-0.1400729013288760
-0.1413376493928682
-0.1413036898254322
-0.1382042147127128
-0.1331552896984201
-0.1293502803568071
-0.1278264657289056
-0.1265447822428166
-0.1215061430028715
-0.1112213536416243
-0.0978774311345031
-0.0402408009841296
-0.0392975925645879
-0.0375422671123197
