203
203
197
198
198
204
163
249
211
202
198
193
209
214
206
207
205
199
199
198
206
217
206
196
198
194
196
203
204
207
211
202
194
200
197
214
211
206
201
209
198
197
205
211
220
206
194
201
202
200
209
207
207
202
198
195
202
210
209
207
202
194
199
196
198
213
212
206
196
196
197
204
203
212
208
203
196
193
197
200
211
206
203
194
200
197
200
205
214
208
196
196
198
208
206
208
207
206
199
195
198
204
214
212
203
198
197
199
203
206
212
213
202
192
200
201
204
209
205
207
199
195
195
203
206
216
207
197
197
201
198
204
208
210
205
193
188
199
204
204
209
205
196
186
208
195
208
216
205
201
195
196
200
199
204
212
206
194
190
195
193
206
207
200
196
197
195
190
197
204
212
202
193
194
198
197
199
205
205
201
193
194
193
201
203
206
200
192
194
194
196
197
207
205
196
188
193
196
198
203
207
207
200
193
192
200
205
209
210
200
198
201
196
198
208
212
209
198
189
200
201
203
205
207
202
198
195
192
206
131
235
211
204
194
204
203
203
212
216
204
192
198
198
207
208
207
213
203
194
199
205
210
215
209
198
199
197
152
240
209
209
208
196
187
201
203
206
202
206
200
198
192
199
210
210
207
204
198
197
199
202
209
212
209
202
196
196
210
214
211
210
209
204
192
201
209
214
209
208
198
200
201
202
207
211
209
198
196
198
207
211
205
212
202
194
198
203
205
216
210
200
201
193
204
207
210
210
214
199
193
194
205
211
207
206
203
202
195
195
205
207
137
243
200
193
198
202
201
203
200
203
196
193
195
206
207
205
206
197
198
200
201
208
214
208
198
196
192
205
206
205
206
209
197
189
199
199
211
207
208
201
195
195
198
207
207
211
202
195
195
200
203
198
200
198
194
185
187
186
198
198
198
190
196
188
194
193
197
212
211
204
196
198
208
208
218
216
211
198
195
201
202
208
215
211
189
198
199
186
198
205
203
193
192
190
188
193
200
202
200
134
235
191
181
189
200
194
180
181
174
173
177
176
179
186
188
180
172
176
173
179
189
189
183
185
190
176
175
182
191
195
201
194
187
188
194
195
193
206
204
202
191
192
194
201
203
207
196
188
188
181
180
183
189
186
183
177
174
174
180
181
188
191
194
188
184
177
186
191
203
192
192
191
186
185
183
191
193
200
198
194
182
190
188
191
189
198
204
190
183
189
188
199
205
196
193
188
192
189
186
195
207
192
186
182
176
179
182
182
184
184
190
177
168
169
174
177
180
182
180
172
172
174
172
171
184
188
189
184
182
180
186
186
187
197
194
187
181
177
175
179
192
186
187
188
188
180
188
188
194
203
209
201
191
194
193
205
204
155
247
206
195
187
193
196
205
202
197
193
193
187
191
199
198
209
198
186
186
196
188
193
189
191
191
182
178
182
183
191
189
190
184
177
181
182
180
189
199
200
190
187
188
189
198
204
210
204
201
200
197
195
206
221
214
202
201
200
199
198
205
213
210
196
194
200
204
212
207
209
202
203
197
193
211
211
204
199
198
192
194
203
199
203
205
200
187
191
192
202
203
199
198
196
188
184
190
195
199
197
193
185
191
185
190
194
194
193
190
182
181
189
191
196
198
199
189
195
193
191
194
211
209
193
194
189
194
192
199
202
210
195
189
189
190
193
203
202
201
197
193
191
191
194
201
207
192
190
191
195
187
194
200
199
198
189
186
191
196
199
202
202
194
194
193
194
192
207
204
200
186
191
196
197
198
204
208
199
191
191
192
192
205
202
198
191
195
191
184
195
203
204
195
192
188
196
189
192
201
195
197
191
189
183
193
203
199
195
198
191
193
189
191
206
208
195
191
193
186
190
197
198
199
200
191
184
187
190
202
207
195
194
196
191
182
193
202
200
199
189
186
190
190
191
198
193
188
191
186
178
175
188
185
180
180
180
171
176
178
177
184
197
187
186
177
182
187
192
190
199
205
200
185
186
190
191
196
199
202
195
191
189
196
198
198
208
210
195
187
197
202
208
197
202
207
198
186
189
211
212
194
196
198
201
186
193
200
206
196
188
178
180
175
180
186
191
181
188
184
179
174
186
194
198
190
193
189
191
190
189
200
203
201
199
195
190
201
203
206
206
202
201
200
197
192
211
207
196
197
194
194
196
198
202
206
203
189
189
192
199
205
203
201
212
197
188
196
202
207
205
203
194
189
186
193
198
196
200
206
199
181
191
200
213
205
198
197
135
237
202
210
210
206
203
194
190
192
195
200
205
203
197
189
189
191
199
205
201
202
196
190
192
192
200
210
210
201
195
195
199
197
206
204
211
199
195
191
206
206
201
204
202
198
193
194
200
209
208
198
198
191
198
194
206
205
213
202
193
195
195
200
204
210
203
204
198
193
189
205
215
210
193
187
197
200
195
198
206
210
204
182
188
203
205
193
198
200
198
147
227
210
211
209
202
195
160
220
200
191
200
211
207
185
188
195
204
200
198
201
204
194
184
193
153
256
218
209
196
196
202
200
204
205
210
203
194
193
200
198
204
157
250
203
202
196
147
252
221
209
200
204
198
208
203
211
214
207
196
196
199
212
218
206
209
200
198
195
199
213
213
210
200
202
201
203
202
210
209
211
196
195
203
211
214
205
212
199
204
197
202
214
215
210
194
201
200
203
204
209
212
204
195
192
198
204
209
209
202
202
196
200
200
212
209
213
203
194
199
200
205
211
212
201
203
195
191
204
204
206
201
197
193
199
198
199
213
205
202
200
145
238
213
212
211
211
202
192
199
195
210
214
207
196
200
198
150
236
204
209
205
191
188
201
198
206
207
202
207
199
192
194
213
207
205
199
196
197
201
199
205
213
207
194
186
187
194
201
202
200
203
196
187
186
201
195
204
203
200
189
194
200
197
203
214
215
190
193
202
205
198
209
216
198
200
197
203
198
209
211
206
187
193
198
200
191
207
211
202
180
192
201
212
197
200
210
203
180
187
200
211
196
201
201
198
152
225
205
212
210
209
193
189
195
203
202
201
207
200
191
194
189
201
204
208
200
200
190
199
197
201
207
209
201
196
195
196
207
209
203
208
203
193
189
201
207
214
207
198
207
200
198
206
214
212
206
197
194
201
199
207
208
206
197
198
192
196
205
212
205
203
194
198
202
200
141
256
210
200
191
197
198
207
204
203
207
193
193
199
201
211
212
208
198
199
196
204
205
206
210
204
197
191
200
203
205
204
201
202
196
189
201
210
209
204
197
197
197
197
206
208
211
201
196
194
197
202
212
211
204
203
202
192
194
203
213
205
200
189
202
195
195
204
210
204
196
193
193
204
201
200
207
203
192
195
195
201
209
209
203
158
226
197
149
240
207
212
206
191
193
192
205
210
207
201
210
195
192
200
206
212
209
198
197
205
197
196
214
207
212
197
195
195
208
205
208
208
201
197
196
197
134
257
210
206
199
190
200
203
138
252
213
208
196
195
197
210
210
205
203
206
199
195
202
215
217
205
200
206
205
206
151
256
217
209
196
199
207
161
247
210
205
202
193
195
203
211
207
204
198
197
197
199
210
211
214
201
199
196
200
207
214
211
206
200
200
195
202
205
214
209
202
143
241
205
205
208
209
207
198
190
200
209
210
161
247
203
199
192
198
209
215
205
200
201
198
200
204
208
213
207
193
197
198
197
216
211
205
207
195
196
197
208
211
210
207
195
201
198
205
211
210
207
206
196
200
208
214
209
212
197
202
198
198
207
218
207
204
196
200
201
201
205
215
212
198
195
200
205
213
206
204
206
198
193
196
203
209
207
199
192
198
193
196
209
209
207
198
192
187
194
197
206
201
200
193
200
194
200
207
218
211
200
198
204
205
208
210
218
206
196
197
202
210
210
210
208
203
197
194
205
208
212
206
204
196
202
198
203
207
206
197
194
191
193
206
148
252
210
200
195
198
199
205
209
211
197
199
195
195
207
207
210
207
204
192
198
199
211
212
206
199
203
196
196
202
209
209
205
190
195
201
200
205
211
211
205
201
191
208
211
209
206
208
198
200
193
201
215
213
202
197
197
201
205
205
211
215
202
191
196
199
210
212
206
210
206
199
194
205
208
213
205
193
200
200
185
218
212
149
250
197
199
206
209
211
210
208
203
202
194
207
217
214
205
200
197
202
202
205
209
213
201
194
197
200
209
210
213
207
204
194
202
205
209
215
208
201
200
197
203
205
211
203
205
198
195
200
207
215
207
207
194
199
195
204
212
211
213
199
198
198
206
208
207
208
206
197
196
196
208
215
211
205
202
202
196
204
210
212
212
199
190
198
195
198
203
134
283
196
192
190
210
207
204
202
198
196
199
193
202
217
209
194
196
196
200
205
204
214
213
200
193
198
197
210
206
202
209
201
196
194
202
212
212
205
192
200
199
201
203
209
209
207
195
188
205
204
206
199
201
197
153
229
195
214
208
201
196
195
196
200
200
209
151
247
197
199
135
237
213
207
207
205
198
193
195
205
214
210
200
201
203
203
202
213
210
215
200
194
198
209
164
247
215
203
202
195
201
210
216
208
205
198
197
198
201
209
211
169
237
198
196
202
208
208
206
202
198
191
190
174
223
208
196
191
185
189
186
189
194
192
195
183
174
170
180
187
190
188
187
184
184
182
189
193
203
204
191
189
191
194
191
200
204
201
196
196
149
222
205
214
201
196
203
189
191
200
210
198
213
205
178
185
186
177
181
189
177
178
176
171
163
173
182
187
177
189
182
184
181
185
184
195
196
199
191
186
185
200
200
194
211
216
193
188
198
204
204
207
206
202
193
184
186
192
197
200
202
189
191
195
194
198
202
206
202
192
192
194
201
202
204
202
191
195
192
190
195
212
203
196
192
192
196
195
201
204
207
195
192
192
195
202
207
207
203
198
191
193
196
196
210
205
195
185
193
188
194
190
203
196
197
181
187
191
198
200
200
198
195
191
188
192
200
206
204
132
224
186
184
182
189
191
190
186
180
182
179
179
190
188
188
187
187
181
177
182
195
195
199
202
196
188
196
202
205
204
212
203
198
193
199
204
212
207
205
201
199
198
193
209
207
200
189
192
190
192
191
196
197
195
182
180
178
178
182
195
187
182
184
179
175
171
179
182
186
191
178
170
176
175
174
178
