0.0144200919413260
0.0057459066903483
0.0016006978526446
0.0104230105634269
0.0338566330873925
0.0638097316670013
0.0883655527633541
0.0959336742519558
0.0840360931264778
0.0586536971213614
0.0319438491350026
0.0124495142382457
0.0026897081206665
-0.0030360117164016
-0.0122201786718745
-0.0311157603805464
-0.0586285087174011
-0.0891171795106472
-0.1140926614802554
-0.1288211123846726
-0.1316197611383604
-0.1258444265652643
-0.1164149145381481
-0.1102701261342646
-0.1111715908484277
-0.1200207346334990
-0.1327018506239276
-0.1444334324216454
-0.1498380182542284
-0.1476833590149979
-0.1398286413321242
-0.1322662408778023
-0.1289869903414377
-0.1312626533849789
-0.1353896411082289
-0.1375425016919303
-0.1335245641661636
-0.1212223289314068
-0.0958884592982671
-0.0489106095154982
0.0354902349728779
0.1709384794731128
0.3563419795547788
0.5593258749259249
0.7179143213608903
0.7575573327425570
0.6272382149148300
0.3284371931904792
-0.0727743039832547
-0.4698743095859889
-0.7581844100405357
-0.8807133206759378
-0.8437234250849101
-0.7037614381571556
-0.5296485360781541
-0.3724305830757053
-0.2511893915314583
-0.1648435343840815
-0.1062296667134871
-0.0727392471693524
-0.0607686395217778
-0.0624644244128040
-0.0642584922671108
-0.0564636884478589
-0.0372379536095308
-0.0149611336702216
0.0002702531695567
0.0019947272099738
-0.0062018065186865
-0.0155776773851200
-0.0166273105922461
-0.0069980135716308
0.0102165022907985
0.0271904618807273
0.0378255193317888
0.0386901916892234
0.0329209133521689
0.0262846074880519
0.0255755780777291
0.0327002938103432
0.0463584803045956
0.0611943827951815
0.0724934127770212
0.0762487049684731
0.0735437408611196
0.0680670859347877
0.0659587843654403
0.0702958748394414
0.0818700498441648
0.0968251604067173
0.1104492618527138
0.1176393338634297
0.1186628814899600
0.1178056381901303
0.1230270543578627
0.1389067349588384
0.1658517180977868
0.1976024874433911
0.2265372266531565
0.2458217997072069
-0.0224132747661503
-0.0189523335875589
-0.0137855069116434
-0.0020871657712041
0.0168494634016684
0.0417868407492327
0.0667031425827564
0.0839435519916726
0.0850800524631979
0.0689578328379680
0.0416583302044827
0.0152926001251626
-0.0020983001501106
-0.0091616861363826
-0.0132283416037534
-0.0223683416088799
-0.0417380481924472
-0.0681410205694032
-0.0950975404600869
-0.1154928165826627
-0.1273525663555383
-0.1307061001902712
-0.1285969729759427
-0.1241092127776671
-0.1225096649565611
-0.1266081794630189
-0.1371291752498986
-0.1499243808537276
-0.1603195163724436
-0.1629169310970915
-0.1565655080452375
-0.1432161030430826
-0.1294092652307064
-0.1201860453748109
-0.1186671829413262
-0.1229205106769556
-0.1287535669083997
-0.1254577750531445
-0.0959720997604822
-0.0161808150480346
0.1313479809805509
0.3403200872692842
0.5609747132826453
0.7063610499424987
0.6848471837745088
0.4550740457899639
0.0576637504730051
-0.3941761964674003
-0.7705652373247518
-0.9826985395068002
-1.0169519050106517
-0.9216302414118812
-0.7700075863587895
-0.6172754319660662
-0.4855750602172435
-0.3711146463508136
-0.2681944202696717
-0.1799357347143561
-0.1183125644779104
-0.0900028363880440
-0.0903190721857381
-0.1019399546826366
-0.1073210877441905
-0.0966551792368990
-0.0739355304961558
-0.0493547902005232
-0.0336397307661984
-0.0299513387670841
-0.0355594652867725
-0.0418205374588004
-0.0413268413673755
-0.0299929572275098
-0.0116493643379153
0.0065995162761447
0.0163745126506736
0.0148977799763987
0.0045137962805617
-0.0059494446428721
-0.0084447200187088
0.0011895131525632
0.0183217857962653
0.0350798185268022
0.0434312040625794
0.0420107254261037
0.0344139637475757
0.0292852249628993
0.0329610316560518
0.0476360773429151
0.0680959064424726
0.0877841521490258
0.1006222907453417
0.1057429387762950
0.1048617668473700
0.1037685736451682
0.1077420346765849
0.1214113665604361
0.1443986974753239
0.1740733803710626
0.2044065949158429
0.2304858889400131
-0.0448386735239386
-0.0239872453371116
-0.0064314198141186
0.0061156501345324
0.0159281873438076
0.0247374110607999
0.0341710843955250
0.0425187006198882
0.0475061473690933
0.0459490781758618
0.0385280184344832
0.0275015807577740
0.0161476339999303
0.0036577106074745
-0.0119131444033752
-0.0328154557487090
-0.0567314716017583
-0.0793601852455488
-0.0949432155300163
-0.1024705426013330
-0.1051852268431835
-0.1103435572726230
-0.1213225426397383
-0.1365857509817093
-0.1493346424403223
-0.1548776463427265
-0.1517361775079490
-0.1440528042138641
-0.1370049058215806
-0.1359437957651883
-0.1411956891568470
-0.1497313725097104
-0.1551301733073515
-0.1535118370578801
-0.1437346106207928
-0.1302582233579573
-0.1191000117025474
-0.1159396428097775
-0.1182673837378046
-0.1142864232501945
-0.0821712425517152
0.0006070976070560
0.1484055244841379
0.3521537959455606
0.5729163424581080
0.7433865075100446
0.7908180860761997
0.6660453898099286
0.3733047022932431
-0.0238638629364243
-0.4195086409832869
-0.7090002208916719
-0.8306966142925795
-0.7901775531734340
-0.6452946887943152
-0.4713899166790005
-0.3223629090687991
-0.2175497356130946
-0.1482482316072340
-0.1001532532515969
-0.0654691635130299
-0.0457338456415594
-0.0411505783633991
-0.0469128173006067
-0.0529681519826727
-0.0524950204738704
-0.0431092676328513
-0.0281706836641373
-0.0116569288603417
0.0016522724181638
0.0094145290295428
0.0096865895443022
0.0036561390450720
-0.0057268582169532
-0.0114384339670414
-0.0076046121324428
0.0079654502363041
0.0291424403243234
0.0468394662747702
0.0529506529092597
0.0472632011214201
0.0354078544618595
0.0273970612443503
0.0297577236108263
0.0436707169688489
0.0627416347712891
0.0793668531714048
0.0872469131066936
0.0863236416436878
0.0805390046452939
0.0779941539673293
0.0845519404995568
0.1018306485326321
0.1239025116294875
0.1432559041093443
0.1539414925855870
0.1569057292151081
0.1569268434165531
0.1615523198082352
0.1748924363040201
0.0058534559931344
0.0043598797732866
0.0066502939462008
0.0190588321365691
0.0442177115265709
0.0764134047339638
0.1056408209030430
0.1199291560856705
0.1132159606776161
0.0870051047363627
0.0528610443554189
0.0244747461175767
0.0113410913226706
0.0109076259409979
0.0131836598591021
0.0061296008449109
-0.0145637986366974
-0.0452662396769170
-0.0750194468272460
-0.0945162449982204
-0.0997116882434700
-0.0955867492450072
-0.0900798350038834
-0.0913286359640563
-0.1019965717795297
-0.1207184815050228
-0.1405158276973169
-0.1540365274658354
-0.1553967569144356
-0.1455616924436854
-0.1295468352238534
-0.1157340601708340
-0.1097169598469359
-0.1137148334767942
-0.1232992955079737
-0.1321597171925988
-0.1338220080740686
-0.1258338321242348
-0.1045191903292994
-0.0627432429204051
0.0133882593130049
0.1358162508446752
0.3045567997185829
0.4930933488149215
0.6485637759693452
0.7042991139284056
0.6108100667484747
0.3608711379864045
0.0023022675471965
-0.3779074781591837
-0.6832986143020379
-0.8471579482868167
-0.8540492288440956
-0.7406930614364932
-0.5686680712199789
-0.3956335907220888
-0.2541975359701394
-0.1542629057030913
-0.0914440309693985
-0.0594226940804395
-0.0504365029849524
-0.0555994915808770
-0.0618049539115019
-0.0586669013717273
-0.0425632772584694
-0.0205613503594238
-0.0023864374453864
0.0047561489825416
0.0020498684157537
-0.0050844657343243
-0.0087792339468109
-0.0053291516696289
0.0048225712261223
0.0156510297139268
0.0220149634736783
0.0212342035169276
0.0165623777309639
0.0128875486333419
0.0160621765153190
0.0275223234713748
0.0451785392161967
0.0622085173194724
0.0729742191295291
0.0738041490437488
0.0665470374008367
0.0555750985350267
0.0484926285457301
0.0505634859864140
0.0636603454760765
0.0828809360871983
0.1016946997453927
0.1135206364506215
0.1167404666017666
0.1130450702960348
0.1091783166431957
0.1117630062319470
0.1255397674925629
0.1482935715120799
0.1745477516650306
0.1970024527873363
-0.0361775815592392
-0.0168899998436598
0.0106663050639172
0.0372118452047383
0.0542245160492929
0.0564979135680173
0.0474563921953574
0.0347361048493503
0.0270893181894796
0.0263776611757166
0.0286339202555309
0.0243028632446714
0.0060823540014720
-0.0282744126053327
-0.0709697669978188
-0.1098624657792757
-0.1332823048635961
-0.1387934178835223
-0.1313104457525640
-0.1215697503096821
-0.1182157687635137
-0.1262558096475058
-0.1428405169175804
-0.1614496110396138
-0.1734916457187771
-0.1749018191460321
-0.1653775711299125
-0.1505415560954979
-0.1372943752441639
-0.1326377384115593
-0.1371494640273212
-0.1465085919004926
-0.1522432392005466
-0.1494866835211751
-0.1377599447612993
-0.1230421789312664
-0.1105973288770286
-0.0999981881449139
-0.0764432764817325
-0.0151616536274165
0.1080118498657543
0.2942701446975510
0.5090845711075870
0.6808107016854882
0.7265336086201457
0.5881401288023367
0.2693355984662843
-0.1583189023367185
-0.5785080111901857
-0.8807328827454759
-1.0034726084164702
-0.9569379694323630
-0.8054734719022653
-0.6295737917384009
-0.4826756126563111
-0.3775308769751033
-0.2971453375921072
-0.2235481157748154
-0.1521413713241235
-0.0931271741885934
-0.0569828499301457
-0.0464688376179718
-0.0522449425884549
-0.0615597910260209
-0.0636724863070939
-0.0561180226843230
-0.0406230476325200
-0.0224376067541865
-0.0058399451433074
0.0044597086498046
0.0072710818405594
0.0033025663591801
-0.0027847635514614
-0.0062825794965819
-0.0016920718326372
0.0121180103333663
0.0320941746741401
0.0493263390551541
0.0565679396563579
0.0511620505466195
0.0389909148257911
0.0285253925461352
0.0279622046736372
0.0386271495239006
0.0569517691801082
0.0751282301239872
0.0882228804068556
0.0941556901714126
0.0957172851867481
0.0964083882656870
0.1015218226483889
0.1135602034668964
0.1324183019511270
0.1527553506332140
0.1697837566081886
0.1805116775950261
0.1873076804619240
0.1937511815469791
0.2050043345865474
0.2235461556349583
-0.0075224428977362
-0.0068079939321253
0.0063287501534216
0.0305190245320143
0.0579515903433623
0.0772615520065256
0.0820734495914098
0.0717853585032913
0.0534175553899829
0.0352260979366854
0.0240734215793624
0.0198882717569371
0.0187095947251854
0.0131442427194843
-0.0018711119108948
-0.0285376335857293
-0.0619004443852321
-0.0935625311832084
-0.1138662420065178
-0.1194114994875541
-0.1126642350027202
-0.1027675640219180
-0.0988837166374556
-0.1074584671315843
-0.1261207249632474
-0.1470396542982794
-0.1599097174516782
-0.1603208446000878
-0.1495794586850984
-0.1352812220177241
-0.1246393909258920
-0.1223199680515991
-0.1253790123712836
-0.1276366222202003
-0.1229760768020603
-0.1123614168543584
-0.0999628772031011
-0.0884451074920038
-0.0685569008789952
-0.0193047214810374
0.0859000456389463
0.2575274875804243
0.4722535531177100
0.6655553896878167
0.7541358212558908
0.6716987518526941
0.4077410428044332
0.0188027898408427
-0.3876429142356364
-0.6994337101259525
-0.8445519692094523
-0.8188360758269702
-0.6741784938553248
-0.4864412591544179
-0.3167757164305215
-0.1955927687596518
-0.1231949257308010
-0.0869226585815452
-0.0717776462062042
-0.0675489945128395
-0.0653452856791360
-0.0596842127214524
-0.0483080538915728
-0.0356642508670643
-0.0271904261530986
-0.0265042584925064
-0.0304618914178120
-0.0335369360764734
-0.0297698625169222
-0.0189637767037450
-0.0049097018110508
0.0053482869782625
0.0086310045045420
0.0054109418323369
0.0006150540209910
-0.0018490966127222
0.0014372149783380
0.0101694360865266
0.0225050629082942
0.0336990662125032
0.0410081436777415
0.0431985230179258
0.0429138162526723
0.0429818932387101
0.0474553236290509
0.0574567755375075
0.0719855426236328
0.0859219899804675
0.0954868938908856
0.0988483347430659
0.0990317007321674
0.0998739208404263
0.1064829129417563
0.1209667211109165
0.1432803916095767
0.1686964492173003
0.1923086454812101
0.2095724062825365
0.2208142259296133
0.2292681784322052
0.0227404178514554
0.0241635678446365
0.0269320277636445
0.0372363747905744
0.0546548769132958
0.0748071811168087
0.0899916058934422
0.0953942488165853
0.0886682781049443
0.0720516377613093
0.0488419827979861
0.0247170965485885
0.0035323698389193
-0.0124001577159009
-0.0252345225775868
-0.0373612665333587
-0.0516527074068174
-0.0681354658799589
-0.0862195051760291
-0.1023593904189231
-0.1137959190064158
-0.1185840470141366
-0.1191305400347391
-0.1182165277545892
-0.1191541938080110
-0.1226894606916228
-0.1296784603278061
-0.1383148052261742
-0.1460912030374338
-0.1483249504682551
-0.1426936343931518
-0.1287331066403067
-0.1110154253336119
-0.0957194971059566
-0.0897894817253052
-0.0943266704218834
-0.1044899396285101
-0.1071463579110727
-0.0845612878432237
-0.0150220307599716
0.1163169614841866
0.3051860826211333
0.5127992991598705
0.6697786131811722
0.6967274601019406
0.5440854846477510
0.2221786036348604
-0.1903554487277669
-0.5779943543477024
-0.8366523819820496
-0.9195125100726875
-0.8461981453134544
-0.6821025425150741
-0.4971902381185854
-0.3386577301350328
-0.2215227542785516
-0.1427774655996273
-0.0944505150233374
-0.0724621470015062
-0.0710218055191614
-0.0808274068815752
-0.0884076444108687
-0.0846972247034463
-0.0673486523789098
-0.0429231185652973
-0.0201661272987395
-0.0067506595192774
-0.0032739792643810
-0.0063335412056903
-0.0100114462971513
-0.0114486709832465
-0.0087571101772719
-0.0024290641872159
0.0071399963133027
0.0169370466283065
0.0244506177987711
0.0269237553649329
0.0250809522171723
0.0211459820257207
0.0202280429274655
0.0252406651256659
0.0363534013556924
0.0483548822940930
0.0562437515545113
0.0567418253190058
0.0522432052719942
0.0474608618454924
0.0494104240602086
0.0617582721303401
0.0841966657624506
0.1098396079883973
0.1312016229461546
0.1427694402479135
0.1461319097611622
0.1468883027169320
0.1536740400306006
0.1713245310489622
0.2000019685713630
0.2332490120178641
0.2643565900604830
-0.0282189120357720
-0.0221661484888927
-0.0030146648797168
0.0274206101315770
0.0590615780058299
0.0813420470545143
0.0867028542062759
0.0755509122628109
0.0532227743180502
0.0293131356000571
0.0108528978679320
0.0004189426432842
-0.0068010369829864
-0.0168434739629834
-0.0343124983335541
-0.0579615366905970
-0.0840231131743382
-0.1060558338129603
-0.1194811652788516
-0.1215866010159445
-0.1152913228049508
-0.1062404084601490
-0.1023784268114107
-0.1079902576245951
-0.1229666934643540
-0.1401494731998600
-0.1511628256072006
-0.1497788683765771
-0.1376994570968983
-0.1211620388053516
-0.1090831571697614
-0.1065837097300182
-0.1145670535428792
-0.1270813912089193
-0.1364455886743930
-0.1359608944735238
-0.1255325687912854
-0.1079267338348006
-0.0853698305302267
-0.0510595936484454
0.0108099999260266
0.1213721006759348
0.2895845397068892
0.4965019631731543
0.6857134243018284
0.7797588912136590
0.7111472905866779
0.4609253058031867
0.0751485694208289
-0.3449951841964479
-0.6857943868490884
-0.8675185125160587
-0.8768779759408513
-0.7600458438256633
-0.5913056283408645
-0.4316747038778246
-0.3096073425839820
-0.2224535464785779
-0.1575930820149832
-0.1065371533811281
-0.0700262542004650
-0.0483790221526510
-0.0376178429177525
-0.0292736328650473
-0.0191538579603419
-0.0082864415351529
-0.0021611607104577
-0.0028055436657397
-0.0076908541496876
-0.0091116693031861
-0.0019158947950160
0.0137050853121754
0.0300202508430403
0.0394116813156673
0.0382479962119375
0.0310527642454309
0.0253279947694985
0.0285555576032305
0.0415248005239205
0.0594662607978456
0.0732651031140960
0.0775871650545218
0.0724031599070165
0.0641783599689408
0.0596391191483348
0.0643523150499784
0.0785809660727158
0.0993070978127818
0.1197934472248495
0.1351371070481915
0.1428210112196613
0.1453647590150292
0.1465851686767339
0.1516957996401299
0.1630125658221571
0.1807580014417369
0.2011793292722362
0.2208523954733897
0.2365968837574683
0.2486386221622051
0.0040044824305570
0.0128289447855006
0.0212071248551347
0.0334317418109856
0.0504562627402337
0.0704478475092533
0.0870996924407188
0.0947558380299364
0.0894474202863240
0.0725276627874353
0.0480274720980119
0.0231081537261505
0.0030206945630270
-0.0096186921046420
-0.0178606336614682
-0.0262267981091189
-0.0397880787548848
-0.0595965205733573
-0.0836664031550741
-0.1052593335406225
-0.1182363227512689
-0.1194974320150852
-0.1133603075555965
-0.1068008870476203
-0.1066922336311200
-0.1143275466753129
-0.1274117964760111
-0.1397503151633707
-0.1463883170807161
-0.1444078640662008
-0.1363188739305505
-0.1262368290556320
-0.1189953597601507
-0.1157509245253774
-0.1158396450991511
-0.1158212724995909
-0.1135412759327412
-0.1064993782332738
-0.0913858223801979
-0.0574902316022622
0.0117503607423368
0.1331473067216970
0.3069482820623361
0.5057627742375891
0.6708202310553542
0.7308088071683896
0.6311555857778175
0.3673783322774246
-0.0056186706394627
-0.3893002595564888
-0.6832759862555179
-0.8239344937062446
-0.8079837196581683
-0.6821141354321364
-0.5140737036139051
-0.3567251135737204
-0.2343640379983830
-0.1472570036494930
-0.0899571549535342
-0.0583201005960325
-0.0497300462475879
-0.0555162587101097
-0.0629316625109448
-0.0592603516060764
-0.0414932777775915
-0.0162057028083917
0.0038562358996442
0.0109334287825133
0.0052409040672628
-0.0046398416705792
-0.0098078352801772
-0.0040749963201117
0.0114660253005918
0.0313311715020598
0.0469317400975352
0.0534529882873808
0.0505207818945409
0.0436859190103509
0.0391939825556330
0.0429770774437390
0.0559755309924440
0.0751521354663181
0.0926216054560115
0.1017394251682194
0.0990274882370815
0.0880729158945456
0.0759340567849436
0.0716963145498755
0.0798208342889353
0.0994560851446711
0.1232968405078578
0.1443145883299971
0.1579344842263425
0.1655416149366463
0.1709059669292656
0.1800166362147567
0.1962116623834373
0.2201367826628521
0.2473805874245230
0.2731333962071337
0.0053424825424630
0.0215514627391978
0.0497206460790393
0.0799298526488903
0.1005442961666103
0.1026294098588689
0.0864172667554062
0.0587256325655550
0.0317035383040424
0.0144247616895070
0.0096823403399583
0.0103413246702178
0.0064413494295596
-0.0100737166859733
-0.0384191804216711
-0.0717507946989565
-0.0989777879881542
-0.1129425424941726
-0.1122295079641765
-0.1035790616062809
-0.0953167532756947
-0.0947988328882813
-0.1032675856711698
-0.1182549223765443
-0.1330228761817160
-0.1422067051862016
-0.1426050779432021
-0.1365550494721630
-0.1276189055335305
-0.1204164421996372
-0.1167648513238524
-0.1174988317619182
-0.1197788136367817
-0.1205363456404099
-0.1163377570760693
-0.1068302678186291
-0.0899463592102104
-0.0602175403411895
-0.0045708774086057
0.0913666634168770
0.2354072733311632
0.4130129902537362
0.5820346660204454
0.6780428890243696
0.6413462915496547
0.4445650664811887
0.1136186269245539
-0.2784247455149850
-0.6343552259123783
-0.8718759440980662
-0.9523134722276534
-0.8928858750453541
-0.7478929992637159
-0.5798071965325707
-0.4303854044367201
-0.3150984459775190
-0.2298723781344606
-0.1678734499592950
-0.1248328511447461
-0.0997219850700177
-0.0873248121090653
-0.0802041695587444
-0.0711867778240974
-0.0601180337510140
-0.0502772051927110
-0.0457929728765586
-0.0453417497918680
-0.0447313266031834
-0.0380656215693789
-0.0246778436612948
-0.0086052712572286
0.0019729435610073
0.0030792334225775
-0.0040310205297308
-0.0123415486856285
-0.0161922578532150
-0.0120727511908194
-0.0015837441026535
0.0121151043978540
0.0239504323331621
0.0317632547683139
0.0350065877043346
0.0362501200305518
0.0371669533175607
0.0402981385601918
0.0464443559717358
0.0564473470532000
0.0681653905277980
0.0794594802361576
0.0873146551241613
0.0918954662020831
0.0950411402176823
0.1020242821335101
0.1163006398107826
0.1386319397801864
0.1640837686932592
0.1875303797223165
0.2050007363491246
0.2174827333068454
0.2275250540767493
-0.0091478714635996
-0.0074932425838283
0.0047719223876599
0.0294588293261889
0.0618436289225246
0.0902033087830973
0.1041916491594554
0.0985762562437786
0.0775178299255290
0.0495016184342601
0.0246423100612488
0.0076629392516527
-0.0018530127089639
-0.0099099210876087
-0.0212378321341890
-0.0381906585521047
-0.0583422467350987
-0.0786610564156054
-0.0946668259855155
-0.1038693545115982
-0.1049981289105719
-0.1014392904765616
-0.0980610317466457
-0.1008873705854422
-0.1118285106467796
-0.1290872738275057
-0.1451782212869322
-0.1526635022967791
-0.1469279526451173
-0.1314375131398258
-0.1136130092659498
-0.1020804922377846
-0.0999212842113380
-0.1057202775383119
-0.1133073660423905
-0.1177606230656613
-0.1154094331613220
-0.1042746513894929
-0.0766008745107078
-0.0180980635532861
0.0896453212818054
0.2538785357572337
0.4579116347566253
0.6518896565054373
0.7652147613033073
0.7319551178561443
0.5264445499849413
0.1808546337423816
-0.2193385837850678
-0.5694676830909556
-0.7851449533760746
-0.8361118890931303
-0.7496440782003611
-0.5904299672399275
-0.4226179716914207
-0.2859366364873179
-0.1897453802038365
-0.1282516865810470
-0.0920136944911223
-0.0750327153903691
-0.0702253422534108
-0.0695708365451687
-0.0639681701912000
-0.0502223842153227
-0.0312108261176232
-0.0153126268248341
-0.0081121995873424
-0.0105585121256281
-0.0171463542729070
-0.0215233857947063
-0.0177917626622180
-0.0055028405835754
0.0116161125262300
0.0255534355134854
0.0310090227964637
0.0269249830459783
0.0187409153465882
0.0130118022878246
0.0158930690755320
0.0279844339845519
0.0456304593499692
0.0607902501706287
0.0679345306784178
0.0657483982885204
0.0597763936943703
0.0570684244732950
0.0640285524989553
0.0806501646445934
0.1020994286816808
0.1196325041383505
0.1281757466451013
0.1276626677907592
0.1247732646605099
0.1271010232731886
0.1411293489157990
0.1667601293004262
0.1990623873717960
0.2292529515582694
0.2520737955672254
0.2665139281186390
0.0391402824018436
0.0658104094336399
0.0887394457847217
0.1002008601643041
0.0959721234497527
0.0803059090538451
0.0617136875884116
0.0494402609465306
0.0457990464979470
0.0471003110464783
0.0442705154063658
0.0301688196691522
0.0023208470463250
-0.0325628487302421
-0.0637991858829028
-0.0815868322501846
-0.0851812506033927
-0.0805759370577904
-0.0774408695692305
-0.0810303527441001
-0.0918938115529236
-0.1049190418337724
-0.1151010175033209
-0.1185184758229395
-0.1156810648626581
-0.1084786252460781
-0.1014648134269932
-0.0988050519773275
-0.1045993052153193
-0.1177242962042168
-0.1330693715370758
-0.1420743223460473
-0.1397495995658373
-0.1257615510793059
-0.1069633419211246
-0.0921660212288560
-0.0883497993308225
-0.0912864214070151
-0.0842164661472908
-0.0397378076839585
0.0658623988460848
0.2388361765836693
0.4527511218464904
0.6495548005232235
0.7538821730714921
0.7058776413730811
0.4888933683982104
0.1443733128196517
-0.2427982092750550
-0.5743589833700278
-0.7786445421281833
-0.8337866936284255
-0.7704411954425512
-0.6457693217862347
-0.5131672667991982
-0.3986791634782583
-0.3033092958290343
-0.2168693742840533
-0.1373762622704381
-0.0739339298844668
-0.0401069620939209
-0.0385091968318375
-0.0579940093529915
-0.0782621973289280
-0.0840217721156432
-0.0703734653696092
-0.0447408539345300
-0.0185981029583116
-0.0023284778218360
0.0017993430587509
-0.0026990932861517
-0.0081212250772144
-0.0089726146229880
-0.0019325101179848
0.0111919289721812
0.0260056403395508
0.0353798682181431
0.0354436711002929
0.0261766450413462
0.0134394250240649
0.0040656314381607
0.0048301473963210
0.0172688204965803
0.0383906901049156
0.0599221228537383
0.0749153108372591
0.0796128475395467
0.0767156921630169
0.0712982670076464
0.0701976292254984
0.0769093974137338
0.0918129419806340
0.1101130990485842
0.1267584541336769
0.1373940895993339
0.1423273923225289
0.1442183319547114
0.1488711751370571
0.1602139153374178
0.1796565669051296
0.0575199333082287
0.0784418816734665
0.0786217838656867
0.0597201423820068
0.0330431726351759
0.0109128949018386
0.0012809595522104
0.0013056910688754
0.0018086817987023
-0.0084237164461550
-0.0336880154530462
-0.0704518954890687
-0.1068610546729426
-0.1312339955140153
-0.1369255774294880
-0.1278745444075997
-0.1136197625404778
-0.1055257040306085
-0.1091384477264820
-0.1239974308908920
-0.1423202250581775
-0.1555562654362236
-0.1576469355348778
-0.1503515156550197
-0.1394884227065490
-0.1330303558912449
-0.1349088647440659
-0.1449154508606345
-0.1562302745656659
-0.1608744592883989
-0.1532414586836874
-0.1363016615670244
-0.1167931082749811
-0.0989302239561840
-0.0733752985705175
-0.0180316537414220
0.0933732592916281
0.2676327830177288
0.4741288195640910
0.6406647566703748
0.6812109774298560
0.5369562930811428
0.2153740730419260
-0.2050678869393947
-0.6028406293165557
-0.8689387436561173
-0.9522453400810384
-0.8766602943640048
-0.7142072670799285
-0.5420604370092914
-0.4046217265751644
-0.3084248888431075
-0.2372070900303143
-0.1772317499126149
-0.1261992364355681
-0.0906292142640361
-0.0725042368468139
-0.0666829707923496
-0.0634356905869562
-0.0580157776132496
-0.0505574079903453
-0.0446937161231539
-0.0408236003570941
-0.0369344274746249
-0.0285348276635013
-0.0146411889928700
0.0021673694482614
0.0150629777786276
0.0196480113735095
0.0152729940525402
0.0071944843940643
0.0016210314768471
0.0047263225903647
0.0176663306612790
0.0372150296230272
0.0548429784967343
0.0633919016922572
0.0596291235710978
0.0480837682069672
0.0366145610911401
0.0342181535334097
0.0443808063591354
0.0649784152200606
0.0876208127343583
0.1045674784048173
0.1111414291620427
0.1096793419650099
0.1060948780220528
0.1089207768638358
0.1229048487903617
0.1477230085822781
0.1758136035432238
0.1988367196929043
0.2110162776597375
0.2143111893918897
0.2153364140307538
0.2237394435710032
0.2451170657856988
0.2797874253179670
0.3210111894552367
0.0045193825147671
0.0067896084001673
0.0223807072583227
0.0504388203972895
0.0805695920491601
0.1006294331240965
0.1019200766247208
0.0854060047281276
0.0588564341611342
0.0339835650731762
0.0178980525453531
0.0109056120002366
0.0056374899940044
-0.0050851941876135
-0.0247541234411998
-0.0499911073995971
-0.0753306651015624
-0.0944845650903663
-0.1043975363377866
-0.1041488348421668
-0.0972666743116238
-0.0891189243185274
-0.0873149450991018
-0.0967446893223709
-0.1179345563951288
-0.1430950870411553
-0.1610532187308350
-0.1622563964936660
-0.1467855782022877
-0.1225271460174508
-0.1020304512332093
-0.0939326032489116
-0.1006249682639240
-0.1157247160815861
-0.1297414868636796
-0.1339715073771339
-0.1267984545814901
-0.1110039950104335
-0.0903395596905378
-0.0605233432903084
-0.0075584541977417
0.0898343452797688
0.2438145980203111
0.4411584160945473
0.6320881496956967
0.7432795929423671
0.7059961209813421
0.4934558746895963
0.1400918158357936
-0.2632614158169249
-0.6065479414754026
-0.8053679766881678
-0.8360225460771482
-0.7346786975995661
-0.5711837333235648
-0.4095093308126358
-0.2851473112489414
-0.2013586495702364
-0.1462217207372395
-0.1073479521748885
-0.0805575809078869
-0.0642007149073881
-0.0557286262942312
-0.0493710388204213
-0.0419491247056068
-0.0334353713510671
-0.0275661289897032
-0.0260354751274494
-0.0276326349985105
-0.0267813401347309
-0.0195981466056336
-0.0061323152466936
0.0074581219337748
0.0154136600667435
0.0152641076157047
0.0109258118476590
0.0079904604496311
0.0120387525328547
0.0238946690171863
0.0406944026218880
0.0554228479298742
0.0625982058270998
0.0597273977705032
0.0503070320955225
0.0401691847449408
0.0364397502769463
0.0422375373290499
0.0566754347176390
0.0737228494087150
0.0876528985505100
0.0943920183002360
0.0948320793176557
0.0923688957060144
0.0933996214665143
0.1023913482276749
0.1203729018405064
0.1417467757165062
0.1593656129705819
0.1676631645703369
0.1679515552045685
0.0170444146542765
0.0279215309415818
0.0353590320190347
0.0409143889011885
0.0469529959195890
0.0566401570362210
0.0683832453496562
0.0774513781860079
0.0767791190721020
0.0632901455194022
0.0379215662581667
0.0071911051072899
-0.0220379726380101
-0.0437821908203297
-0.0569526362218207
-0.0627399627715968
-0.0655967136858759
-0.0696130912030997
-0.0786588336984784
-0.0918216692186113
-0.1054319361264714
-0.1138176274621877
-0.1153693327661248
-0.1117721219336128
-0.1087101555605008
-0.1105849419076044
-0.1197695183726966
-0.1329252171542182
-0.1446229322005393
-0.1487406013378044
-0.1437857057145512
-0.1311153198041016
-0.1157324732398650
-0.1024210779965406
-0.0964573295879151
-0.0994377314387997
-0.1092599482124086
-0.1157318949768329
-0.1016527118015946
-0.0432826712607389
0.0772938739694457
0.2581449770387583
0.4622035741012728
0.6219078722024796
0.6599936685983023
0.5274487194553716
0.2312239896692142
-0.1582267998262823
-0.5351965387244774
-0.8016503559481069
-0.9091237893710964
-0.8695467464209933
-0.7396154597121531
-0.5833609361291955
-0.4437277609711117
-0.3308165027109377
-0.2368054825545722
-0.1541108293146838
-0.0879864625120873
-0.0486869306107547
-0.0410960133595967
-0.0556851748049821
-0.0746739211766612
-0.0802730187318287
-0.0665013092193970
-0.0397382243328210
-0.0151908899162219
-0.0042770193597488
-0.0093985085251839
-0.0220811670538875
-0.0317176832007928
-0.0304230200593945
-0.0187407757090998
-0.0022526901199826
0.0106614158718877
0.0159152818480832
0.0135233628247530
0.0082419752842707
0.0043703355712148
0.0060249473565304
0.0140705333591481
0.0278936535750708
0.0434135851915110
0.0567101787163422
0.0636182436861000
0.0633627864833605
0.0572202253531184
0.0506803617352677
0.0491930406091803
0.0570118216820445
0.0728090131797416
0.0926534973252902
0.1104012079880858
0.1226664040184357
0.1287142741101641
0.1333024736708115
0.1421914559082128
0.1599395141442136
0.1846301542802650
0.2111785318937364
0.0245409138249112
0.0185826219212384
0.0171336819954520
0.0291800407138816
0.0557225056917977
0.0869081429866475
0.1097425031490855
0.1136474102580468
0.0975931309630895
0.0680462853622096
0.0370589129579955
0.0139433700311010
0.0024697792529077
-0.0018440493399103
-0.0056563489415504
-0.0151253244075944
-0.0313391687031001
-0.0526044296327354
-0.0736079834835069
-0.0896194960565455
-0.0968824737868425
-0.0964637094200602
-0.0918448066402602
-0.0892548050056899
-0.0930398584816842
-0.1051498830978298
-0.1214474126448690
-0.1353422253381705
-0.1399423294452823
-0.1339697637104898
-0.1200544497350152
-0.1045307048980455
-0.0924578728987376
-0.0876514794584192
-0.0896387428839097
-0.0964119227234458
-0.1035146127882598
-0.1057799113681806
-0.0927460183431598
-0.0493255869444456
0.0426698061913993
0.1921887558798096
0.3873025837830189
0.5837016823791211
0.7122429779797055
0.7020747183400105
0.5188241173848556
0.1883185822075930
-0.2043255753016916
-0.5503495025880009
-0.7620188059235888
-0.8093624153090533
-0.7222184635797312
-0.5662371053337723
-0.4034712840316058
-0.2701276857171329
-0.1737805819736547
-0.1097335526824631
-0.0716156097239368
-0.0560996802182061
-0.0568468566303152
-0.0641168211138271
-0.0657861209227116
-0.0558914184975419
-0.0364440055698497
-0.0169576201535957
-0.0053029549673607
-0.0043705773572311
-0.0099649708373015
-0.0165583358587263
-0.0186714916293408
-0.0146542000630190
-0.0049089656459058
0.0068454579494384
0.0174054880750653
0.0235880737999518
0.0250155067554207
0.0222942504545010
0.0191260426107242
0.0190517241894163
0.0250031382795988
0.0352799500263425
0.0462167754183092
0.0528083518552293
0.0537024070348664
0.0506184566681972
0.0495089710776862
0.0551118439105772
0.0692902596204957
0.0879874559453526
0.1058782742360862
0.1178366903668483
0.1229424062432552
0.1226220967606060
0.1220681894872103
0.1265217307015589
0.1407682959879915
0.1649322181312538
0.1961568787746120
0.2277168060719227
0.0032781085833100
0.0034163195193431
0.0165198242501590
0.0435741751855881
0.0767813390495471
0.1044606844779306
0.1145964539168186
0.1033994861657486
0.0759023597147111
0.0452741661167483
0.0235074056992126
0.0166545013307691
0.0195330328774931
0.0208852533915408
0.0088652320965390
-0.0189480719855802
-0.0556926204836026
-0.0879522759644889
-0.1059509880834319
-0.1068416494498214
-0.0976380975194320
-0.0890421170233530
-0.0910486393584943
-0.1050274972624784
-0.1252964095982884
-0.1414741120290747
-0.1466483392742111
-0.1385126766694452
-0.1219709051988228
-0.1049526459544045
-0.0966297534122166
-0.1002497340508740
-0.1129532250403083
-0.1257309320693738
-0.1309523528750292
-0.1247627182757579
-0.1105311479733539
-0.0926859604747124
-0.0707366636242670
-0.0301078827489865
0.0522628122111121
0.1931484311427854
0.3786937373105013
0.5563714107153817
0.6466905912315273
0.5815773884602968
0.3420397934390111
-0.0207240244233095
-0.4047490897170281
-0.7004805294901605
-0.8404303564487374
-0.8198195928347520
-0.6883256422663192
-0.5150596861412062
-0.3571500498372833
-0.2404085135968524
-0.1655089799642674
-0.1207979459189839
-0.0965037858939571
-0.0847387051369702
-0.0790960005543821
-0.0720004434870487
-0.0600985347484514
-0.0443674859625713
-0.0309983486156810
-0.0247508716680208
-0.0270165007742326
-0.0324884792987071
-0.0347561122613106
-0.0292289958051507
-0.0180209583818180
-0.0056619742877153
0.0025190879498544
0.0050309687209787
0.0022272792841251
-0.0018759142251958
-0.0031244106354847
0.0026727955349401
0.0150297691602560
0.0305955575346128
0.0427689408463559
0.0473264643473701
0.0432814688110532
0.0362018861820661
0.0332794995067291
0.0406760246681816
0.0576845781945138
0.0794266249353802
0.0977894254735686
0.1074671590418287
0.1065339650301956
0.0998511262180154
0.0948087704689040
0.0991171689947420
0.1144501021659941
0.1380507551467685
0.1628320248749358
0.1831778827572519
0.1955521342402021
0.2021924888183120
0.0517280693081235
0.0661886645947138
0.0664237258404470
0.0550319109947619
0.0399673549795713
0.0280371139759875
0.0238726295174597
0.0253590751438569
0.0256913466647614
0.0144694431380030
-0.0132176385665226
-0.0538574961033173
-0.0941523424543478
-0.1205015135195601
-0.1251136874088235
-0.1127702399560602
-0.0959997972238425
-0.0891798955460620
-0.0974808465681774
-0.1163638191101419
-0.1340949437022155
-0.1421770882501803
-0.1382340089879313
-0.1281785074405204
-0.1197113747070657
-0.1193437242290615
-0.1266140448968891
-0.1368447268656548
-0.1424026015139672
-0.1388908931341649
-0.1251209053839056
-0.1061181619778601
-0.0888927945738473
-0.0783499219820030
-0.0661082618102211
-0.0294105324515702
0.0617588267661289
0.2215033934471650
0.4294199570756050
0.6224137020070180
0.7157081244290617
0.6396169396101310
0.3816259128752394
-0.0002421907069990
-0.3960735693325582
-0.6941280875103134
-0.8271780442180182
-0.7982452687376839
-0.6652892738410915
-0.5042508590480821
-0.3673486272043708
-0.2697627289604442
-0.1994875163491327
-0.1425236662398877
-0.0940869438456421
-0.0588068689913253
-0.0391715539508791
-0.0322635137402388
-0.0296540896758421
-0.0258737776912865
-0.0199087999243154
-0.0154224333185446
-0.0133517898318529
-0.0117255580926781
-0.0059346128768499
0.0048465959911029
0.0184291952720852
0.0292375132506954
0.0338370718730680
0.0313695384380561
0.0263490833964808
0.0239627763545759
0.0283931983282839
0.0384925290986546
0.0511911891034648
0.0617558744240506
0.0677945867467436
0.0681144496793616
0.0656983539344576
0.0647515714187235
0.0702199275592870
0.0826464634949584
0.0995339697073765
0.1146286273972419
0.1230526535595519
0.1222616739608439
0.1160366976503903
0.1107888222936517
0.1135469180030540
0.1260051083398755
0.1461196590935236
0.1678674114268430
0.1861712401156401
0.1972663310344403
0.2026920114361998
0.2066726529704246
0.2154149875044796
0.2316117251449518
0.2553278265559762
0.2826029420893416
0.0161483151687460
0.0095783034729913
0.0140149438544685
0.0326959508712770
0.0620445127629393
0.0915077557804674
0.1112326192053568
0.1151350652412806
0.1049157207505228
0.0866708261724067
0.0698538493078135
0.0606123349906401
0.0595958682689325
0.0591443050515999
0.0501501280169924
0.0270681573884721
-0.0058170571485607
-0.0382794091004704
-0.0584205540137075
-0.0619045041823174
-0.0530743200803016
-0.0439131893090066
-0.0444903999973932
-0.0590224625322609
-0.0828427139146098
-0.1077560136866512
-0.1242110231579401
-0.1272261560140624
-0.1168774069001905
-0.1003813116738148
-0.0864654159883293
-0.0823921303886279
-0.0883209732556020
-0.0993636615296303
-0.1068147734505408
-0.1054841174300047
-0.0951650400117589
-0.0809888811944389
-0.0642453894462946
-0.0375359703961983
0.0177666310852527
0.1207603635185645
0.2782349212663083
0.4683947487958567
0.6391834869751092
0.7200111055703163
0.6531419373163878
0.4225832142144443
0.0715766172198186
-0.3101567185032337
-0.6184438507377621
-0.7795194253426299
-0.7773985660796376
-0.6554270803390901
-0.4846391474584140
-0.3276828615317574
-0.2136793963526011
-0.1418057086314841
-0.0961265773496246
-0.0642631387487029
-0.0413921167650260
-0.0286518001158465
-0.0248061542995595
-0.0263572614937040
-0.0281208185321736
-0.0283195605425671
-0.0262818726450892
-0.0224793513830702
-0.0154676142574040
-0.0051245779693125
0.0078495528612881
0.0192876599787796
0.0251219631588378
0.0223631199871699
0.0139727160526139
0.0062283691168620
0.0067092037201853
0.0175222523592156
0.0358151709989128
0.0536311380759906
0.0639929067146631
0.0626955301770290
0.0524571981173359
0.0395209711834819
0.0320960215806835
0.0347293917378923
0.0487817696858366
0.0700178853024128
0.0917354563938564
0.1057247366199779
0.1089042810918303
0.1037456109036447
0.0986565295559994
0.1010588274609734
0.1150949866692604
0.1376807882191886
0.1622895476149600
0.1813014509776858
0.1928689986217535
0.2000597963021996
0.0370166861703536
0.0589180745130559
0.0690939031226856
0.0647186134996047
0.0488174321622238
0.0297234165191940
0.0138604338875896
0.0043190321228458
-0.0021325861416743
-0.0107597843828422
-0.0271326852049241
-0.0511242566928456
-0.0784217895339108
-0.1012114819818164
-0.1144480721619696
-0.1160799399962215
-0.1097335309212361
-0.1013475581332791
-0.0985770821667615
-0.1048064640992425
-0.1191816273812560
-0.1354569711988134
-0.1474590690499202
-0.1499575761026209
-0.1427040322078851
-0.1284665705920969
-0.1136907727272350
-0.1034296746913134
-0.1010903880931577
-0.1053315575188108
-0.1128981685855780
-0.1180668046232533
-0.1167434145227050
-0.1041750069794418
-0.0736570836597383
-0.0108160299268810
0.1003822091316886
0.2658066389050627
0.4623082870229455
0.6346240420792030
0.7083932751105394
0.6245475747579332
0.3704684811169925
-0.0029537245482829
-0.3986169026174780
-0.7105555532620089
-0.8696674731909185
-0.8659930206957863
-0.7447799570098180
-0.5738991672341560
-0.4112261131427804
-0.2835971034175409
-0.1930542338143295
-0.1311248472359579
-0.0929910168730754
-0.0753239746877768
-0.0727169854915380
-0.0737027305394345
-0.0676574934392250
-0.0491248147640076
-0.0227856919611947
0.0016483375478947
0.0141115904688755
0.0127023975527632
0.0028340855936823
-0.0051231229372171
-0.0046352028826573
0.0052504912826297
0.0184427679309929
0.0281315665761519
0.0295821916836905
0.0249895283912130
0.0197456678577347
0.0201220204769061
0.0276638263812410
0.0412989866325761
0.0570372712785993
0.0715260171500312
0.0807606986370996
0.0836488212101750
0.0813009062597931
0.0790607847187361
0.0821283047549609
0.0944043768818014
0.1137022282656173
0.1339654022394022
0.1468930993603971
0.1494860053335303
0.1446026621985712
0.1408739705750714
0.1455608342742287
0.1626552854058521
0.1893826419943561
0.2195467226705805
0.2447014375231361
0.2605281716807210
0.2674627704740123
0.2722783731447492
0.2825358180983150
0.3043998537795926
0.0206261996339189
0.0373585022522431
0.0657532836132402
0.0954123717024403
0.1142075161252549
0.1140408103191067
0.0970508418531980
0.0720048627573922
0.0509549745845140
0.0407929728916575
0.0411266723813880
0.0429149822429315
0.0360821242647730
0.0140975849447043
-0.0204378149939784
-0.0588583128833574
-0.0887677070440352
-0.1020227450798244
-0.0974281580197400
-0.0833486960950163
-0.0711456357693593
-0.0706108061701291
-0.0833045333489205
-0.1041470165067483
-0.1226523659495558
-0.1304324330650893
-0.1240749044534482
-0.1086842120465938
-0.0928669003870640
-0.0855185743890328
-0.0893381314824651
-0.1013203212917705
-0.1127388302548558
-0.1162533469654667
-0.1088506536571684
-0.0945515585454948
-0.0773325532299103
-0.0561706975175289
-0.0194436636227428
0.0500141253167761
0.1675704999126111
0.3319233102583612
0.5172239762766353
0.6718827435651963
0.7358659862048257
0.6630023703233371
0.4449624134188725
0.1179992951899390
-0.2441228363671751
-0.5567174869095987
-0.7526812816157926
-0.8076254404822253
-0.7423218086363707
-0.6088869699411967
-0.4617835470870106
-0.3369485112359449
-0.2426847850390120
-0.1713867114448998
-0.1133488188683483
-0.0677703637307109
-0.0382960998220901
-0.0275715359252793
-0.0311132124961782
-0.0410580107919207
-0.0483020515723960
-0.0477341356213627
-0.0373017636883563
-0.0194992551075999
0.0020465499636172
0.0218249051465121
0.0356384468322105
0.0400728936006452
0.0360027884366018
0.0265497117410400
0.0174380798778011
0.0129618276799550
0.0166096071151679
0.0276862368963903
0.0425551059328628
0.0541895006570981
0.0583927027060510
0.0552576544506569
0.0508273149273919
0.0511833488120982
0.0602806858662540
0.0759265008217605
0.0930046947549457
0.1050553298380933
0.1100326777776919
0.1092547292850698
0.1074234453638876
0.1079412260021978
0.1136908786363833
0.1245948237878990
0.1394005252766910
0.1542088476746972
0.1665119757782544
0.1751589542412922
0.1828736044800662
0.1931469219869186
-0.0000091348404739
0.0028950565847936
0.0185521935356659
0.0447745524391786
0.0729685271837522
0.0905891323909625
0.0904883099159471
0.0729782574688522
0.0468599076507935
0.0218765035948561
0.0055218345435663
-0.0024315909497328
-0.0071974383185054
-0.0169938058586098
-0.0350377977076933
-0.0593067775532315
-0.0829972160935879
-0.1017550242408695
-0.1138276324948783
-0.1212724112716795
-0.1253512706214105
-0.1274780730565215
-0.1271269817818556
-0.1254690215586584
-0.1240797194410282
-0.1261932585869656
-0.1317571335254011
-0.1384067004155983
-0.1409829444354368
-0.1370691807317145
-0.1265097570032044
-0.1133318536972068
-0.1017285655807460
-0.0960717712390743
-0.0965962853167487
-0.1008903353917127
-0.1015751241114823
-0.0879384070347976
-0.0432600111875272
0.0487529741918185
0.1950986670284267
0.3776348275497015
0.5497949152131965
0.6449693271606605
0.6047612423707088
0.4062886413614284
0.0811626065769768
-0.2942358702026806
-0.6257662223605061
-0.8404037330466378
-0.9098969695251913
-0.8567041017226041
-0.7326175611051609
-0.5908940474361130
-0.4612501069655305
-0.3500007346259797
-0.2526495931823585
-0.1712803443858824
-0.1140257322171795
-0.0875912415196285
-0.0859242571772319
-0.0933740728552424
-0.0921375569662099
-0.0751672603366097
-0.0474979162619100
-0.0229395603791603
-0.0117005861447720
-0.0158075136091333
-0.0272176885911762
-0.0357568080088319
-0.0331015293435711
-0.0188574273588878
0.0017514195936251
0.0194049980967411
0.0283490560510704
0.0272479098925919
0.0206962224196656
0.0140398723640796
0.0130023441751085
0.0193465352822245
0.0318920020912172
0.0450222346494232
0.0541625927591745
0.0567701554517595
0.0555427585750584
0.0546249153531374
0.0593080968625508
0.0710662202492328
0.0883088734902119
0.1051917942792361
0.1173362896024480
0.1225951915195415
0.1239172490731817
0.1256587367977136
0.1338135374010945
0.1512966270031690
0.1780704802099393
0.2087503598319072
0.2374827334379575
0.2589187366322229
0.0381081939863908
0.0515440291490067
0.0598260331400193
0.0619059363917327
0.0603341082053355
0.0579003808531184
0.0571854201958720
0.0569299674869292
0.0554768932571521
0.0504305691152992
0.0413884599240731
0.0273944199647971
0.0094319301723230
-0.0113437032101040
-0.0318972174597498
-0.0508398339756858
-0.0671152497173601
-0.0821150698654855
-0.0962914490920543
-0.1096924155887423
-0.1190896883785897
-0.1219911879229715
-0.1173942971055436
-0.1090389597188246
-0.1012686937788934
-0.0987377945924208
-0.1031072670264629
-0.1148472474897795
-0.1302218665812617
-0.1435746036531359
-0.1475533486509990
-0.1391144288872062
-0.1198454405081496
-0.0979134820052170
-0.0825519511723886
-0.0806434315649035
-0.0889299606482862
-0.0944034211032490
-0.0758906394592084
-0.0139542730715250
0.1028392204145410
0.2684571997894650
0.4575452287628720
0.6254161905795913
0.7206198107444670
0.6990398444941106
0.5427788580173294
0.2687872165826350
-0.0691931827342173
-0.3969002293811117
-0.6421481314154763
-0.7625318156979417
-0.7568140850898267
-0.6614861575777572
-0.5269550668547663
-0.3951202378462274
-0.2842841506034127
-0.1959291145317070
-0.1263783047385524
-0.0779174451072952
-0.0540570280177939
-0.0537919338287837
-0.0660303965327009
-0.0764163483977308
-0.0733917183274942
-0.0560204562702000
-0.0313225433300952
-0.0106086967365241
-0.0001994809770580
-0.0001969092086768
-0.0040915591467856
-0.0054177159844905
0.0006299808215441
0.0131016673676714
0.0277405245203736
0.0375109236151877
0.0389510165505006
0.0326652003152267
0.0247258258481260
0.0212049442192260
0.0269473646039112
0.0412288631119582
0.0598335955295420
0.0752886970446863
0.0829363161236918
0.0813601498849052
0.0744242933022989
0.0672311766417063
0.0661266718133658
0.0740662327576127
0.0907110811997355
0.1104603748483532
0.1277649185794937
0.1385512495108494
0.1438888242364223
0.1469834788740953
0.1533887968804740
0.1662962804730029
0.1865299866220473
0.2101014967198147
-0.0119676938251231
0.0053745753342740
0.0333230659009195
0.0653586511258240
0.0913535431077961
0.1043895233610200
0.1015673034071907
0.0869991603459263
0.0675120655597726
0.0511535711442806
0.0415318001892137
0.0385919789525600
0.0366207291368573
0.0287002501515589
0.0088021664071719
-0.0212702720003150
-0.0534487766545868
-0.0761472465002608
-0.0837797440677459
-0.0784056034556377
-0.0702648132682454
-0.0695705081416637
-0.0821334127065451
-0.1037176647703027
-0.1249483910521845
-0.1359850062158587
-0.1345863436591442
-0.1243764650513740
-0.1134659606434388
-0.1078610386626518
-0.1108718938530757
-0.1198497083604167
-0.1296953949066108
-0.1336327220405403
-0.1286257964644147
-0.1146843880389249
-0.0967369476274479
-0.0796161541499874
-0.0650660928290254
-0.0439514178317546
0.0020851304677584
0.0949113063571509
0.2428831385360802
0.4288788830537957
0.6036013013672058
0.7001079340039287
0.6590421728432365
0.4610466875823729
0.1395996226110503
-0.2265371384264624
-0.5455704728493931
-0.7456735584771751
-0.8020749815699111
-0.7384808468421734
-0.6105943935357314
-0.4733985002355193
-0.3595797477250684
-0.2728227043641706
-0.2028973593224319
-0.1401212961944780
-0.0860243353696936
-0.0479409250675116
-0.0321159781507672
-0.0348674842697117
-0.0461437506059309
-0.0542137569520788
-0.0537248959802866
-0.0438759402220390
-0.0279623469494268
-0.0092580503012996
0.0070323032405332
0.0169123799042143
0.0174869421353000
0.0112956939886974
0.0041682276668120
0.0046792992558073
0.0167406504923848
0.0377544454433064
0.0573001027613485
0.0657026275466681
0.0585638347366476
0.0413213904393119
0.0239609902844547
0.0175951609429923
0.0267411591395140
0.0489695965760229
0.0745709364579169
0.0943649638491928
0.1026428646492463
0.1011483973509992
0.0951531744691878
0.0926481441965921
0.0986989087479765
0.1149927598013546
0.1369922242700624
0.1585210312042132
0.1732157086684856
0.1798579078488732
0.1812790811502649
0.1853102626801326
-0.0289871923020410
-0.0010471239068325
0.0304943011665359
0.0545373447255160
0.0642050810539853
0.0582146957354324
0.0437051781805030
0.0299393845933040
0.0242438486226557
0.0251538522326570
0.0258194310778082
0.0168495278028351
-0.0057299895147408
-0.0399614216207002
-0.0763158547813092
-0.1044224644400514
-0.1165252610208433
-0.1136517827685074
-0.1025296412755636
-0.0938517337473378
-0.0948031556850732
-0.1075750437441002
-0.1261148648079672
-0.1419653259126689
-0.1477619066731814
-0.1435188221110517
-0.1333991882316890
-0.1244053073006516
-0.1206184806257383
-0.1237470180972281
-0.1302027452080418
-0.1348604989634389
-0.1319448478078378
-0.1207773725885210
-0.1044710318599298
-0.0904569333981654
-0.0834052748104617
-0.0810075731767638
-0.0664661787752680
-0.0132575845920368
0.1041476996986330
0.2881570832006025
0.5049616362740165
0.6828359320614906
0.7376056778831827
0.6093739884124586
0.3004399028573395
-0.1179223930984429
-0.5293106349600314
-0.8238667801144947
-0.9421089900308124
-0.8966883140838825
-0.7534153695008888
-0.5920544668473932
-0.4630745566263558
-0.3745766680687744
-0.3050400885503160
-0.2342936127765121
-0.1596153468569459
-0.0961917309349399
-0.0595272417839577
-0.0540133114597967
-0.0678472872304196
-0.0836964386707438
-0.0875418761400382
-0.0768529739689477
-0.0562633563322041
-0.0346003990483443
-0.0183480335458429
-0.0120987466300320
-0.0153030687552076
-0.0248007232406199
-0.0338680222445117
-0.0369346420597190
-0.0297057354032916
-0.0138391646189276
0.0049274437784648
0.0174013057033599
0.0188589107468921
0.0103266708745637
-0.0002038829819913
-0.0048040720614335
0.0022145045098520
0.0193767219946700
0.0407432713671563
0.0569872748758715
0.0630160578962845
0.0588993968099446
0.0513136968602021
0.0472434580999154
0.0525948604337134
0.0677124307168690
0.0896651395911358
0.1117330674036442
0.1289534290960104
0.1382411883426690
0.1414778435143363
0.1423700472235184
0.1472847536573416
0.1603925705105770
-0.0414659332175001
-0.0333097420187689
-0.0170990353936095
0.0073270542071031
0.0363106386349558
0.0614039077340907
0.0755661130000315
0.0750017983038455
0.0633917751890707
0.0471944672014321
0.0332043361399675
0.0228527006831971
0.0147762095287254
0.0045277881556065
-0.0108546559279299
-0.0329930823691828
-0.0580830981773063
-0.0803312369990484
-0.0937804209136168
-0.0986539561212290
-0.0991510166618536
-0.1024721501247733
-0.1122897931230246
-0.1283847931320746
-0.1441951740849279
-0.1524667670645332
-0.1480381202612976
-0.1336347777419062
-0.1165674721750280
-0.1067598083668683
-0.1092989171052070
-0.1233414995557643
-0.1398049031284568
-0.1484599373337815
-0.1426597787639741
-0.1258671123179280
-0.1068091420618590
-0.0943598101290610
-0.0871888868293472
-0.0717227477725891
-0.0220759319902877
0.0864425063333508
0.2622320042586732
0.4800957684489868
0.6819483303718095
0.7909897918356741
0.7443685167668751
0.5220627927816108
0.1653653720471548
-0.2357493685562015
-0.5747059859577520
-0.7729871380572058
-0.8065404810764991
-0.7098170145975637
-0.5491794429298392
-0.3902020613249377
-0.2694258545019083
-0.1924696110752010
-0.1454049663904982
-0.1141172699823512
-0.0901598035314430
-0.0720573610558358
-0.0590046886074362
-0.0510351329311041
-0.0462657691985172
-0.0435014973515147
-0.0401356852089568
-0.0347718369838229
-0.0253549350619717
-0.0126686081091567
0.0011812419528040
0.0113843528317004
0.0154625288210450
0.0129149356025833
0.0075977723716776
0.0040988412988549
0.0081975940265198
0.0214802161859426
0.0409373497213776
0.0574463106779468
0.0635942040108995
0.0571686070379920
0.0448120066126923
0.0357245688540039
0.0382563611635640
0.0533575204628498
0.0763480507612968
0.0977713224372956
0.1108604970300684
0.1127596145549198
0.1073212988936419
0.1009074203186123
0.1018050019597343
0.1139758335073483
0.1362467955202236
0.1605392383576299
0.1792235751504493
0.1881927564951391
0.1909301969154658
0.1937728843579873
-0.0022166819697083
0.0083377902731620
0.0151511579029067
0.0219991691009562
0.0311924425066840
0.0446605153595039
0.0604251051128428
0.0744543051488109
0.0796306340227842
0.0721219769731522
0.0523199447528552
0.0269585457205611
0.0027760574144066
-0.0152474873863115
-0.0282815803685215
-0.0398921272569621
-0.0548924530561304
-0.0734869211358265
-0.0934029676777472
-0.1100083608449516
-0.1212667830405216
-0.1256923997391870
-0.1244931802799835
-0.1194366349428512
-0.1152586656838980
-0.1153805819012247
-0.1220198388257059
-0.1328861005011816
-0.1445790154238345
-0.1517879732933173
-0.1517088898569807
-0.1432295821635922
-0.1296103633161793
-0.1146499489673488
-0.1035695364441330
-0.0988424597910136
-0.0991547704583765
-0.0921480931953528
-0.0560552564122702
0.0343606168926432
0.1887997892956665
0.3877270060489851
0.5752934481083489
0.6763723416218195
0.6256228916735265
0.4039111459710202
0.0521396033008740
-0.3391424201789253
-0.6684512294884564
-0.8618257928809706
-0.9008915654207902
-0.8190223866488379
-0.6778968286889419
-0.5311333324392172
-0.4059368617480902
-0.3027486928288026
-0.2145250842782415
-0.1389952137852557
-0.0836449137268135
-0.0556229898649705
-0.0552256963170217
-0.0707508576186253
-0.0864402438227406
-0.0891178170825375
-0.0764596544617756
-0.0537270862194811
-0.0311410963523163
-0.0161460861870054
-0.0125261033418895
-0.0170400520671782
-0.0237342129950554
-0.0252158201915732
-0.0184165563185533
-0.0034665932801855
0.0141055233875946
0.0274703296557929
0.0296318557027594
0.0202454582394101
0.0046583870901462
-0.0069347629730344
-0.0075734292188392
0.0050613947411072
0.0257809337470523
0.0468845105273447
0.0600218413897111
0.0627165611213372
0.0570567920369915
0.0497774240063433
0.0462545876704534
0.0505863552314340
0.0620764244114760
0.0777175892551799
0.0916427828275044
0.1010844951546686
0.1063451521119912
0.1124584294046518
0.1237124789380777
0.1432704015663711
0.1692450861516271
0.1974170395043379
-0.0116962834629748
0.0103388592815298
0.0185024484413912
0.0151458872774960
0.0097650748058797
0.0104584688635334
0.0212978376682785
0.0382381290049131
0.0532919030646997
0.0569496145923542
0.0459905499342054
0.0231769730279227
-0.0032961528424000
-0.0271643883048379
-0.0447487826060399
-0.0573578585820562
-0.0672747909102181
-0.0779738516107110
-0.0899567443830526
-0.1027399124096303
-0.1135930457999616
-0.1211519247707448
-0.1236993264194120
-0.1221866096853351
-0.1185473083520312
-0.1173404157972444
-0.1210511272795965
-0.1305273885028941
-0.1427613348276828
-0.1546012165768735
-0.1616167697776153
-0.1615116719502196
-0.1529196207894574
-0.1383107360349972
-0.1212614825614213
-0.1078894071385496
-0.1026592768589355
-0.1066417917730704
-0.1097902316486822
-0.0910813057552510
-0.0218810519841066
0.1174763199097968
0.3220323896687604
0.5476895845731184
0.7184481991672953
0.7512838026303713
0.5985756936355040
0.2764587600148624
-0.1320821774138639
-0.5120330611164294
-0.7634892265962263
-0.8444625105791830
-0.7788697097603314
-0.6348440589978723
-0.4809883152180391
-0.3570159443928735
-0.2666819931184454
-0.1974989145097715
-0.1390650077693908
-0.0938096370352180
-0.0690096254652338
-0.0680528382247784
-0.0821933234424946
-0.0965840622364339
-0.0975334944771397
-0.0821972302909837
-0.0567086452146470
-0.0333445378372345
-0.0215587956983786
-0.0250383167859183
-0.0376785551763957
-0.0491655482489757
-0.0495573881343136
-0.0372144892005344
-0.0169491982907859
0.0018133461590550
0.0124959687546931
0.0124983146618456
0.0059746096063795
-0.0009578521680258
-0.0018747851944838
0.0049980945151434
0.0189230364152999
0.0355702127113900
0.0506763536653624
0.0596681105362933
0.0622489442449394
0.0609442210148393
0.0615035183159028
0.0675497553921570
0.0808267183664931
0.0985440929897933
0.1166583342746775
0.1300343288803123
0.1376743095469891
0.1415771758895606
0.1471329270901592
0.1577481477717763
0.1752556861671808
0.1975627129358019
0.0144935231957018
0.0370603075294606
0.0456966440707970
0.0431068489376315
0.0391208728555276
0.0422527211516147
0.0566792140124970
0.0787822058621182
0.1010839585390187
0.1138905783167590
0.1117298363304999
0.0942212279223039
0.0680672090117522
0.0418390415664146
0.0235193173053532
0.0145719875209430
0.0111831509642610
0.0053203593558798
-0.0080682392954928
-0.0299452178597411
-0.0554968606189980
-0.0786033129336413
-0.0923924136646470
-0.0942512175934934
-0.0863064111510369
-0.0771399159090135
-0.0752335514586160
-0.0854582672769219
-0.1045271598990226
-0.1249780598504479
-0.1374801294273295
-0.1372824453337882
-0.1243652964282000
-0.1044654699333288
-0.0838762663072852
-0.0692437672923642
-0.0648803736624114
-0.0731969354591016
-0.0878404281796753
-0.0908012619614084
-0.0518166813894864
0.0570466850530647
0.2423515055484037
0.4685374078064020
0.6594608225848544
0.7231747929634345
0.5993991968874018
0.2956046292879402
-0.1056023765217425
-0.4823925233020576
-0.7267897505314632
-0.7926041511119806
-0.7052218910484015
-0.5377815364157392
-0.3650972597914290
-0.2323000552953162
-0.1463832244251055
-0.0936436549579665
-0.0574205978815676
-0.0310660576786847
-0.0153900433043895
-0.0137995327836414
-0.0237187850521137
-0.0373702072193547
-0.0439463286009724
-0.0375544084647238
-0.0184023690815982
0.0059749658708691
0.0266362035749429
0.0360943449306012
0.0338963656757527
0.0244734434521756
0.0156821899329446
0.0126343416538226
0.0176070676140940
0.0279537858563110
0.0394557925024358
0.0466330127946155
0.0475119613022116
0.0428189712164018
0.0370411558092493
0.0343724226130885
0.0389764663072677
0.0511578712525551
0.0680790806656253
0.0827482602363007
0.0901374522105839
0.0893271729613582
0.0862671989771349
0.0883640750762720
0.1016087574688261
0.1249922219217667
0.1524952018774764
0.1748040620601680
0.1867679741919272
0.1885924149043076
0.1870479169208896
0.1898276550537650
0.2037325876691149
0.2298726638525745
-0.0215795354849629
-0.0116125009186594
0.0032017335454853
0.0203256677368333
0.0338165581135814
0.0400587078334919
0.0383304362894048
0.0330917096035152
0.0288815783243868
0.0286720241075709
0.0300487133176297
0.0288810920713789
0.0198236380897750
0.0007076595610605
-0.0279163733029463
-0.0597922380356769
-0.0869999066253581
-0.1023173280626068
-0.1053756664637151
-0.1007177508139327
-0.0968142008415490
-0.0997657792607942
-0.1121704101157655
-0.1296102993224497
-0.1447591633920831
-0.1500206503004807
-0.1441968696395544
-0.1311853257467695
-0.1192135748097469
-0.1142050756081845
-0.1183179164492686
-0.1267050504098872
-0.1321726099084095
-0.1279947835091778
-0.1143310970615892
-0.0966804313079830
-0.0842962680261548
-0.0806855638911052
-0.0773928820702654
-0.0484855137885325
0.0381372741848504
0.2004249049345060
0.4157572180288744
0.6157207727173457
0.7054393205386362
0.6103426537573990
0.3185124354023302
-0.1007734720606268
-0.5248870850664915
-0.8314029024605308
-0.9539966203563811
-0.9018682643590197
-0.7428093687495109
-0.5578095705038753
-0.4038072525599944
-0.2968030663208154
-0.2255787709410594
-0.1719663945497891
-0.1278866807813458
-0.0937977183631424
-0.0735596652485653
-0.0665348635452313
-0.0688774675085833
-0.0735317217042851
-0.0750914836021993
-0.0697386049963042
-0.0579740364503224
-0.0416437969618596
-0.0249316282781795
-0.0113674094617378
-0.0046627932064629
-0.0048278022529932
-0.0096712564378204
-0.0140965847583437
-0.0144665283467819
-0.0081469371833467
0.0032745218265226
0.0158783940307495
0.0233586089239906
0.0233208945475572
0.0180227377499122
0.0148463339188050
0.0191781976772828
0.0324376934357978
0.0497736136379932
0.0654724037662456
0.0749418250523007
0.0788435292604612
0.0798404903529895
0.0820814340726882
0.0876225989344400
0.0986802689599778
0.1154432421765092
0.1370545854331010
0.1590023429626982
0.1768835044267543
0.1872262981159083
0.1917387870969023
0.1953247793800494
0.2058930612050715
0.0118218828853311
0.0216203276140807
0.0242917129725568
0.0271889681099673
0.0375771403099619
0.0566175826210615
0.0801639446877952
0.0989302118830689
0.1053061378688877
0.0956755542503984
0.0739454492075603
0.0477125827755962
0.0262673568120600
0.0137461499955914
0.0083588202204443
0.0021255043595512
-0.0114359934646954
-0.0343652032465268
-0.0614873415745356
-0.0855311043266243
-0.0992359038843450
-0.1007482305103671
-0.0928890718328152
-0.0834529241361089
-0.0790067165205836
-0.0832975126543646
-0.0944377445078726
-0.1086433335506906
-0.1205582652961851
-0.1273877398030045
-0.1280989449279102
-0.1250930419869845
-0.1203742041377160
-0.1161801090669421
-0.1130959212549701
-0.1128549372918375
-0.1159493644051681
-0.1217019440159647
-0.1231204426466005
-0.1062739549396890
-0.0495789971611658
0.0650965627501209
0.2391376366871746
0.4424379309922087
0.6163272934347583
0.6902968354939339
0.6141986898688543
0.3831132898451934
0.0477582310625724
-0.3045848291328111
-0.5832311512024997
-0.7314988016460127
-0.7423810812892838
-0.6534940941367059
-0.5196732910320411
-0.3871569103079543
-0.2769066953843768
-0.1908171637364620
-0.1242006402906244
-0.0780414646785188
-0.0554594690935181
-0.0558460366549621
-0.0686873854629226
-0.0796387341386245
-0.0769401284995039
-0.0597180900343452
-0.0358111773900611
-0.0176335724119527
-0.0122963624552378
-0.0195362779283285
-0.0313463708609780
-0.0390504654621096
-0.0359898909721509
-0.0222060937770083
-0.0024860849689569
0.0143558737192792
0.0222154057206687
0.0194212933354605
0.0111084827039062
0.0041761016426879
0.0050672077558715
0.0144138985153121
0.0285894842316342
0.0406397348033396
0.0467753836023734
0.0466520991363184
0.0442489717056807
0.0432073724615578
0.0471111585128336
0.0565621359172492
0.0706939096157132
0.0855128658530982
0.0976593328327181
0.1043185024174579
0.1064221246036754
0.1069053510129765
0.1119185972593035
0.1259821856340199
0.1503371515124143
0.1795044339070948
0.0174940082193875
0.0471697186049383
0.0731035712639928
0.0874860213086747
0.0861046762653732
0.0725726357217581
0.0543208071829397
0.0400213182426942
0.0329471655818900
0.0317628364527448
0.0297118898823516
0.0199935518882102
-0.0022151749094033
-0.0340509987139744
-0.0675017761066907
-0.0920121183664817
-0.1025406479981355
-0.0999981090186063
-0.0919093212684217
-0.0861486769264536
-0.0888295871796743
-0.0995479307647538
-0.1142655953816123
-0.1262860434140327
-0.1317006893846263
-0.1288812794022851
-0.1211401079454045
-0.1137083654437679
-0.1130675881875941
-0.1206433943493895
-0.1329110757380006
-0.1412401711175811
-0.1390014330989414
-0.1239469814518406
-0.1021120951549485
-0.0826777402789551
-0.0725547882967150
-0.0655969063781471
-0.0421396866481895
0.0252466640457321
0.1529650617419352
0.3314038270635033
0.5150476336908829
0.6343111512499917
0.6204801118402538
0.4414260100345347
0.1209622835819529
-0.2629490598503040
-0.6095113969669904
-0.8335000257086316
-0.9003144040689777
-0.8325825361212245
-0.6924744232655994
-0.5432702597192147
-0.4220523846730811
-0.3315108162434867
-0.2576543570411498
-0.1883135932110980
-0.1256555561706700
-0.0797658455971337
-0.0590900522229802
-0.0599278001764045
-0.0701802921400037
-0.0759815614916303
-0.0716902396759418
-0.0588237878317672
-0.0440443103765491
-0.0322655419932367
-0.0265261190866679
-0.0258501941067411
-0.0287185257344800
-0.0320679595780333
-0.0336165359259150
-0.0295677138179379
-0.0182170592205912
-0.0003303080464183
0.0180816787112872
0.0309804041817159
0.0343102129532530
0.0299366073312363
0.0221023238200391
0.0168703292665542
0.0174882746879040
0.0253179111869032
0.0380621699855588
0.0532534118067882
0.0669019106175928
0.0761009035911412
0.0783783072226277
0.0761715364062569
0.0748303003090943
0.0812537547431141
0.0970588673767707
0.1189824942877625
0.1391137185097444
0.1517957743824869
0.1556377849855721
0.1566130393400540
0.1623655430863339
0.1785824717447687
0.0223097327615326
0.0383174025081572
0.0476210290337904
0.0505002290172818
0.0504455506117155
0.0505438584426945
0.0534557473079177
0.0580153735016400
0.0617793651223087
0.0604548465895007
0.0514494407083287
0.0331302795990988
0.0080037095605807
-0.0196012885063585
-0.0435410046256628
-0.0605300632793840
-0.0694568344422021
-0.0732939761952135
-0.0756738319147634
-0.0807444164074022
-0.0890518384238531
-0.0993792262405444
-0.1083592118711265
-0.1143069976876896
-0.1158316596840122
-0.1142147630796383
-0.1116168979290979
-0.1121644846510120
-0.1173621767249682
-0.1262202184945813
-0.1337845265716356
-0.1356463426613965
-0.1284214724728444
-0.1137097412703923
-0.0966811565378686
-0.0860082052067071
-0.0865138300441764
-0.0953927026071034
-0.0975876740766929
-0.0706390687410300
0.0091749736185581
0.1527532788995943
0.3485243141065104
0.5555769967280146
0.7129122739336635
0.7563695355179546
0.6454497811540789
0.3821879254111255
0.0197418127015878
-0.3540715590604693
-0.6467979774584163
-0.7988076987781692
-0.8019435319940433
-0.6968365607320967
-0.5445043525855215
-0.3970096042188719
-0.2778990098856851
-0.1882363571898561
-0.1209185181226074
-0.0747335031216087
-0.0515650745429635
-0.0505910891185869
-0.0620423370561423
-0.0728600440046442
-0.0720485953484602
-0.0577881578003632
-0.0351133528350630
-0.0132870649125952
0.0015529214942981
0.0067189137651713
0.0040853183689801
-0.0035573771777993
-0.0111193612726898
-0.0140827081847045
-0.0086239712036394
0.0041756711668785
0.0201989921811876
0.0323533230058379
0.0358698632713578
0.0294293557562577
0.0184557041098198
0.0106699836562772
0.0128917285882972
0.0248444980163837
0.0413217724628710
0.0540268677656727
0.0583224665542728
0.0542568606747772
0.0485085951354157
0.0487236157312542
0.0603228660690523
0.0813900231200738
0.1059099946282510
0.1257597721126076
0.1367381724838356
0.1388210992421045
0.1380527175408939
0.1416031569474180
0.1554689506161830
0.1796087256748478
0.0033286919754799
0.0325854185571081
0.0660273794623493
0.0932625412671263
0.1052752022845618
0.1002909315723546
0.0822551514853673
0.0605570059929722
0.0434978528086392
0.0363517920799792
0.0362760540623947
0.0349554006108100
0.0214705469647980
-0.0077736868256441
-0.0470526586280571
-0.0822878128985751
-0.1017418069730198
-0.1011782393686289
-0.0879261230403611
-0.0742986766701237
-0.0722860560965996
-0.0850491369742052
-0.1080059420379084
-0.1305206422145440
-0.1438998873408141
-0.1433141634258706
-0.1315698498834237
-0.1155301061492683
-0.1043882434006641
-0.1025367502032593
-0.1094253030619866
-0.1188743972770938
-0.1250521667277852
-0.1234192118479826
-0.1148000243246469
-0.1030176432657734
-0.0939466452436628
-0.0871164259616046
-0.0726157133759719
-0.0291249764582728
0.0654264070703105
0.2214938792799153
0.4210223251607518
0.6147802911811635
0.7324397133193312
0.7123291924002346
0.5285144409193886
0.2087030933257601
-0.1741181804564428
-0.5248324869377610
-0.7632230825758015
-0.8511908021586844
-0.8050876133488775
-0.6786179074228159
-0.5342966023587470
-0.4126590797958166
-0.3237950168168576
-0.2548445816183779
-0.1920795221762238
-0.1327489213683958
-0.0867272135293584
-0.0629081622830678
-0.0616168098385781
-0.0719080516342185
-0.0808163146686716
-0.0784639624387809
-0.0638935982906624
-0.0420214333888478
-0.0219460200889270
-0.0096553631976240
-0.0074391708874122
-0.0122332468046879
-0.0202090504461164
-0.0261135944822484
-0.0265464589761166
-0.0189316085787464
-0.0049016584262108
0.0121352562401146
0.0260790137318555
0.0326429255959314
0.0297785034914641
0.0217464783026580
0.0153356673758099
0.0175283891238448
0.0290176334710354
0.0461061363727724
0.0614072109403230
0.0700056044333816
0.0700558486632950
0.0659771206845118
0.0640828523830819
0.0705522101899194
0.0855147701453977
0.1050624389640681
0.1216963062485189
0.1304917128295381
0.1300368770811028
0.1257337494312253
0.1249532892584364
0.1345691236958661
0.0614114831813444
0.0558803267738994
0.0513215303501940
0.0491707198644478
0.0479178820683861
0.0411904602225810
0.0241964998012917
-0.0042440301220325
-0.0377551658912339
-0.0672517115733914
-0.0834071127311526
-0.0844228453519984
-0.0760331891238490
-0.0706475813049337
-0.0770952111359144
-0.0967716126341667
-0.1213086169729636
-0.1406444453546000
-0.1469265845382981
-0.1404144668349002
-0.1265280712666970
-0.1145028201114580
-0.1100756872388044
-0.1150482132085332
-0.1252231939767814
-0.1351585755974928
-0.1383592969881647
-0.1323694582442596
-0.1182713641950121
-0.1025434077836236
-0.0910525492040857
-0.0870958519998718
-0.0857766455312495
-0.0747004097209501
-0.0321871241239444
0.0638459177062592
0.2243718230612859
0.4306953550426236
0.6298552390082089
0.7438602754127704
0.7025289191574622
0.4775506148050417
0.1069408472544002
-0.3157814318743624
-0.6768488945212490
-0.8923186484554158
-0.9379076226873371
-0.8522377525564033
-0.7054131316544191
-0.5608901080125823
-0.4457665598900192
-0.3541948616344776
-0.2678766168053178
-0.1814913174486966
-0.1057956147389744
-0.0583746823873770
-0.0458314152481784
-0.0595847515316117
-0.0788725330787643
-0.0854697944684569
-0.0717256802803566
-0.0449056196380009
-0.0181327440592483
-0.0034964046872432
-0.0038068216368920
-0.0145778150137122
-0.0253518938139675
-0.0278727542553648
-0.0185898656645954
-0.0020663337834254
0.0147468456795111
0.0247270110073008
0.0258062757003773
0.0191774311117568
0.0108456563231537
0.0069292832514719
0.0126928741888248
0.0276649420857471
0.0480733077483722
0.0665807998450896
0.0776363998585292
0.0780892006600001
0.0713883699160504
0.0639449766581067
0.0633714480990194
0.0721183025944996
0.0888627271005018
0.1078309726526408
0.1239056138927228
0.1330365686872566
0.1366539770317091
0.1389523089114507
0.1462584149724356
0.1611127933587004
0.1830689349310987
0.2071274513995467
0.2285767100807551
0.2437421029923510
0.2544153587394460
0.2645180456248991
-0.0011642334866653
0.0002876085244990
0.0153146111288748
0.0429776730321983
0.0730738337766957
0.0936806258641137
0.0952774447083314
0.0778480690585978
0.0485966178720157
0.0198221439368606
0.0003811286890747
-0.0062953055267044
-0.0056445098809429
-0.0068107194389408
-0.0191009407197095
-0.0436371927633544
-0.0743537600132209
-0.1000694393955177
-0.1135725591879530
-0.1133774193333969
-0.1059647845304384
-0.0997834676705689
-0.1025071161954061
-0.1147215770329005
-0.1322399115964069
-0.1471891773990863
-0.1543139863177404
-0.1505906836904759
-0.1381895141426629
-0.1218841051995796
-0.1096346628422762
-0.1065527582208794
-0.1140276545083998
-0.1267829633693286
-0.1375848406250494
-0.1387256961129227
-0.1281281325520336
-0.1076624622097069
-0.0808611183470214
-0.0427644408987057
0.0210373429959836
0.1297180430586003
0.2893355006918973
0.4807171816266494
0.6540060631350085
0.7447499379738532
0.6980461637335157
0.4975315071637105
0.1750817007935874
-0.1956974572520424
-0.5270288066667927
-0.7452180711074917
-0.8178813942885501
-0.7604798523461308
-0.6263086803887008
-0.4759331703747761
-0.3521245536562135
-0.2664485687017186
-0.2097417651068442
-0.1664117958559241
-0.1291056646960865
-0.0980524391486069
-0.0774921590391800
-0.0671812649394252
-0.0640803374199748
-0.0635407275517740
-0.0642879666117130
-0.0650335051843325
-0.0648832696934248
-0.0610174337842937
-0.0527526641088428
-0.0402964009496482
-0.0271545586291839
-0.0167547114862621
-0.0126311161088693
-0.0134652167285622
-0.0152170553825987
-0.0119015369740121
-0.0020559554191547
0.0121719100792415
0.0244256890766166
0.0300114126025077
0.0267935573260363
0.0189942347828038
0.0129231487522010
0.0151561022160551
0.0267991301207389
0.0456936459853979
0.0659876309486425
0.0827774149412237
0.0917588332336669
0.0934405710265427
0.0910704302251694
0.0911132687754187
0.0978867417833537
0.1137396141373674
0.1356795330966813
0.1584096791300619
0.1748622622144567
0.1829297677169356
0.0055515688649563
0.0320395461468115
0.0569258520078691
0.0737273407685984
0.0778553763335318
0.0709880244740419
0.0576395110387248
0.0452203304842915
0.0379833299884767
0.0363834899279935
0.0340899486234926
0.0241109391214729
0.0015210821329132
-0.0305550456431238
-0.0639770103564288
-0.0873172206859174
-0.0947214525011190
-0.0877786969708125
-0.0769234452014914
-0.0725884701139325
-0.0812653283748343
-0.1004786121832139
-0.1231541610067502
-0.1392098103758607
-0.1430210180579458
-0.1344532907738083
-0.1211007973384634
-0.1111998506192527
-0.1108306564534252
-0.1187378342891276
-0.1297034500456423
-0.1351498060091613
-0.1302338589552090
-0.1153232770632050
-0.0989513304396830
-0.0903632597402048
-0.0939579699771243
-0.0996210914179949
-0.0835788539066794
-0.0135487306472372
0.1305252253509477
0.3373902139937369
0.5515563297182949
0.6890788523501369
0.6701886859345382
0.4621170735570106
0.0995989223322922
-0.3213445799783196
-0.6845847164102379
-0.9007810537042490
-0.9441007119554577
-0.8512069356105130
-0.6948649594053514
-0.5411473612362231
-0.4238726241596490
-0.3395868861523387
-0.2693762754050148
-0.1996517209374168
-0.1345984234199950
-0.0864292189909602
-0.0643898589141812
-0.0649611504848904
-0.0768808945055503
-0.0859014127982256
-0.0837283976286002
-0.0683031559158922
-0.0453866110305429
-0.0226065865934947
-0.0083087667214084
-0.0062701354954654
-0.0163467641406879
-0.0314646015052870
-0.0427118970859318
-0.0419560401490945
-0.0285540438148497
-0.0069532324814103
0.0139274946278585
0.0270622720517683
0.0278825830399597
0.0186495358038030
0.0054451452758321
-0.0024831879782123
0.0004378581934736
0.0154919468241363
0.0364661248414838
0.0545948353209155
0.0612605678216221
0.0558549025263929
0.0444844370936429
0.0382846969474900
0.0445235733357117
0.0649139405730585
0.0927261721104609
0.1184861852436723
0.1330679057343382
0.1355070758342462
0.1315796278878908
0.1321505205986183
0.1445960110171202
0.1715709571503872
-0.0080531864437616
-0.0013451548194383
0.0184893424959746
0.0483883312187271
0.0794928481484710
0.0993607427724985
0.1007948177088145
0.0835446176385300
0.0562910835794389
0.0300304727837482
0.0149067675332395
0.0129018807077734
0.0186484932294303
0.0205568510897991
0.0103182600244645
-0.0140938853978208
-0.0458655115088732
-0.0758690245621145
-0.0951918628270821
-0.1012819347111072
-0.0969585118218783
-0.0909979939337583
-0.0910303870398473
-0.1013153342508655
-0.1185722578131533
-0.1360247400612851
-0.1448206101195197
-0.1411080032682119
-0.1268022668939941
-0.1110262766927090
-0.1024597815111177
-0.1059623980614685
-0.1178293554168496
-0.1302981924111589
-0.1340284383767583
-0.1257894386182366
-0.1086523776353235
-0.0916623619204506
-0.0798920290726493
-0.0690581295071141
-0.0404296308083490
0.0312164395307470
0.1661481850159691
0.3594245821236581
0.5715802677462829
0.7320715066062079
0.7676301929252620
0.6343114374109318
0.3442098688931378
-0.0360691336922807
-0.4068545392498316
-0.6762157661896562
-0.7930403840495626
-0.7645962732772591
-0.6418747142569941
-0.4910567918466440
-0.3604287127481766
-0.2684623750074460
-0.2072703048602162
-0.1621355090291192
-0.1235759844127438
-0.0927916784828057
-0.0730825003313904
-0.0656238084849034
-0.0658709771219194
-0.0687908383617641
-0.0692671015669525
-0.0655878520976615
-0.0569733795890031
-0.0451884315458878
-0.0313247430955717
-0.0182356727650021
-0.0085876259052772
-0.0061559028661601
-0.0107082450545995
-0.0188515312037251
-0.0235370831347583
-0.0204326427784397
-0.0086151291029924
0.0066229554330957
0.0186277636633425
0.0215207458375731
0.0164416426124615
0.0090012409651620
0.0071697458467873
0.0138569860434479
0.0275499523144666
0.0419107709877446
0.0519294080275326
0.0550724168348659
0.0549558747531856
0.0567395190128326
0.0653105175800111
0.0805037646132496
0.1004992573678459
0.1215951066965486
0.1414334740173903
0.1567806234021882
0.1668893366110042
0.1723498685889296
-0.0037355936824677
-0.0062074124351555
-0.0018237173093027
0.0140494766321073
0.0397200671122911
0.0694374539727054
0.0927532801289968
0.1012360497483078
0.0907819592968484
0.0664369252557349
0.0381159446371581
0.0174552954847972
0.0086177347108649
0.0076265485328185
0.0035776117233204
-0.0109046633424445
-0.0365935609463427
-0.0660382674330016
-0.0909826749692923
-0.1045708268646721
-0.1063771302748034
-0.1003278478663389
-0.0949927455670615
-0.0968186204080493
-0.1087016417493593
-0.1264525558509152
-0.1431646370570616
-0.1505033448946297
-0.1455739315638998
-0.1312120124959889
-0.1168155540789268
-0.1101972385514010
-0.1147126059785338
-0.1257983178927420
-0.1366038089500188
-0.1400648522056969
-0.1348623819055440
-0.1233729804661769
-0.1098336025264894
-0.0903854926469718
-0.0508440458287604
0.0313495706295867
0.1702384482970165
0.3558525515138922
0.5417477664388634
0.6563532958473176
0.6300338196787538
0.4345012686738249
0.1023348339569208
-0.2789840471141141
-0.6050817333190417
-0.7957774239353506
-0.8268162378664674
-0.7289175946336127
-0.5659947619526063
-0.3992318605960150
-0.2669641820677378
-0.1793928023397344
-0.1312105915807787
-0.1099704051828157
-0.1040396016264150
-0.1019217883162768
-0.0960455324246522
-0.0821399583523692
-0.0629173767114870
-0.0443179906275995
-0.0335445794391391
-0.0316549124222531
-0.0348368423859406
-0.0356883718782296
-0.0307572279549869
-0.0202561221593245
-0.0090480803068975
-0.0010399921120255
0.0011082516128282
-0.0005678334541763
-0.0030887898680047
-0.0024240136483168
0.0026529339977325
0.0128606442647143
0.0256398098205931
0.0372914538023938
0.0421823161638259
0.0389339439710696
0.0303546200572761
0.0241422650188231
0.0258967599851554
0.0378959390327510
0.0558627776974168
0.0735929223038269
0.0845978156665580
0.0883257576282598
0.0882197738948951
0.0909580433080564
0.0999971435033839
0.1163114931037071
0.1365599095518256
0.1570682229116602
0.1732258449445435
0.1838941254251915
-0.0063414920160667
-0.0078706003907822
-0.0085708047839425
-0.0013159740721154
0.0165205000076285
0.0392760333653875
0.0578185342735537
0.0626311598241210
0.0521177155333535
0.0317894656762587
0.0120610510555121
-0.0013196948357621
-0.0085974273079899
-0.0164473634932107
-0.0302372449556521
-0.0519828661609009
-0.0772996020346408
-0.1010390381943980
-0.1187367378400121
-0.1300492723270557
-0.1346911611387303
-0.1337984081417560
-0.1284648767496990
-0.1228338532479012
-0.1201583008405041
-0.1229081823035472
-0.1295983349406801
-0.1380581044353580
-0.1443931514015755
-0.1468425047568450
-0.1444486039825318
-0.1391231705065712
-0.1317513113055636
-0.1239267942482396
-0.1164568693944013
-0.1121319084108208
-0.1110027120081860
-0.1083430798244829
-0.0886097990099274
-0.0290391047367294
0.0925176622945371
0.2762487882882070
0.4854307315585388
0.6450932807726578
0.6722455784357841
0.5166127699116339
0.1956512606065664
-0.2074233820874218
-0.5758978647239498
-0.8136165321939905
-0.8826557698357905
-0.8120389185737229
-0.6674293235709651
-0.5127867273919772
-0.3812968216443862
-0.2772909278719820
-0.1914920358613016
-0.1209084497687489
-0.0708220204056524
-0.0485858736045495
-0.0507576493031910
-0.0640256436277553
-0.0715377606363330
-0.0655130869562007
-0.0482131777043019
-0.0298712584079473
-0.0190665223951366
-0.0196920209070360
-0.0272913067729002
-0.0343614575571678
-0.0332117682040577
-0.0221783302994152
-0.0036373432898721
0.0157628031563723
0.0300712683349122
0.0342826507062985
0.0289247211340786
0.0181289746149118
0.0096244160960245
0.0087422535043295
0.0180220296348740
0.0340022992639244
0.0506969676679723
0.0605558772229171
0.0609888513412483
0.0541600772918292
0.0475602462915482
0.0474665209511444
0.0574611139660947
0.0745563722306971
0.0929798470783356
0.1059625762637671
0.1122694159366022
0.1147366562697301
0.1196108782609781
0.1305857484771864
0.1495227878487898
0.1742027076706882
0.2012318304579472
0.2251625727031385
0.0034762690889447
0.0222958379189974
0.0458497135314439
0.0662661530325591
0.0760263070252430
0.0732557366131848
0.0598284196276509
0.0424371168927052
0.0278596793018776
0.0214188829717879
0.0215684319208431
0.0221050176368628
0.0136259952457365
-0.0086362357943262
-0.0426297147531553
-0.0772835022895317
-0.1005193596841009
-0.1052297977918657
-0.0957639253667200
-0.0825834508891174
-0.0770705391100200
-0.0834071499872497
-0.0995046997086569
-0.1174379952506702
-0.1302384421536427
-0.1337305083764860
-0.1300256449652352
-0.1233531220294723
-0.1191811381295399
-0.1198618377713694
-0.1259221033838605
-0.1337127669537854
-0.1387715251022585
-0.1362289370287343
-0.1258529315857887
-0.1111033291484261
-0.0999478583359398
-0.0978314988227134
-0.1023411244325966
-0.0951519188831197
-0.0470945582065885
0.0693246850043901
0.2565944291631155
0.4790549048160638
0.6630672809307638
0.7240971270202252
0.6041559140582663
0.3085034836507525
-0.0892430123833484
-0.4730384813668216
-0.7368223414842658
-0.8273137613018103
-0.7619978248088837
-0.6069672670263894
-0.4381399152928818
-0.3034548537388785
-0.2145758791269292
-0.1584466680287474
-0.1201141797209859
-0.0917132746146111
-0.0736545443286931
-0.0664715377020923
-0.0689512314931212
-0.0755107461002323
-0.0804101540348806
-0.0781661632844138
-0.0674135334286035
-0.0490027775575992
-0.0278104475334214
-0.0095990638649135
-0.0009719608451607
-0.0039804041902060
-0.0163783243529984
-0.0304059597086105
-0.0382653575096382
-0.0338113058505559
-0.0178061596589863
0.0037940517909114
0.0211094056152882
0.0283578101036152
0.0254036571266360
0.0187731802724714
0.0149704218584828
0.0185475288448152
0.0283036439076957
0.0406704591013474
0.0506557410194339
0.0570328575981745
0.0606967766359152
0.0650654794147641
0.0721333547459522
0.0841449110926132
0.1007807753018117
0.1200288303728266
0.1360123170563892
0.1442072756172772
0.1433547781376509
0.1392968462417721
0.1405155205360004
0.1555105708531618
0.0075475422040184
0.0300331169551227
0.0588787480194238
0.0870612341763342
0.1057051760324598
0.1095395025422200
0.0969515788847005
0.0736942164703583
0.0490916333301427
0.0332917478849229
0.0290606558452566
0.0317424024466425
0.0299058242282149
0.0144982585305325
-0.0165423275206409
-0.0535972274947438
-0.0828071570498899
-0.0935171285269877
-0.0875028836998288
-0.0752599679933145
-0.0705432223979480
-0.0800714185275175
-0.1023915311506418
-0.1275127207254163
-0.1450117971747679
-0.1479103164060331
-0.1379438155873259
-0.1216278538808321
-0.1085041313168003
-0.1048214932875077
-0.1129553030878505
-0.1278191918027277
-0.1408863221598963
-0.1426251495835275
-0.1302273518707950
-0.1078578937417489
-0.0864959438576813
-0.0736603669773441
-0.0652761156562196
-0.0379693575957603
0.0403068020864805
0.1901134675735735
0.3937067774914533
0.5891666679870202
0.6871704703593104
0.6143313782099782
0.3528597276053816
-0.0394378202445551
-0.4517188286777535
-0.7668030469766471
-0.9140525139875695
-0.8914856264821507
-0.7559351974838788
-0.5831399047741551
-0.4313254881064943
-0.3206597299822938
-0.2435930613630668
-0.1838876505481943
-0.1344899654451673
-0.0960755007523320
-0.0717578223422356
-0.0593490283436821
-0.0544903964122801
-0.0520634883898869
-0.0509297562060878
-0.0509859831215457
-0.0527766327533661
-0.0530644570658597
-0.0483375454746175
-0.0363128249352266
-0.0208142992915219
-0.0077668303171896
-0.0030543222232996
-0.0065861203187830
-0.0141545487675164
-0.0178001044985298
-0.0126739301355436
0.0016558679415711
0.0189749870496513
0.0326027772634214
0.0373718049325579
0.0339309517793230
0.0260709094565981
0.0212467839029458
0.0248840105393864
0.0388169923989963
0.0576735340775396
0.0743968220207684
0.0831835229450841
0.0850268142380202
0.0847427376663839
0.0898195507012165
0.1037779969807723
0.1258355482716393
0.1496234176096713
0.1697012615394890
0.1830734025819891
0.1923100270236506
0.2014564589407623
0.2159313024334683
0.0180881352473454
0.0108935470935571
0.0097689147511937
0.0225302000051930
0.0484053194926056
0.0763460387409961
0.0940271745857639
0.0932211106933300
0.0758540218825914
0.0502841165594255
0.0285862109673648
0.0178990406188428
0.0183364096455986
0.0213809292666394
0.0177540976042815
0.0012470032269825
-0.0262826913209927
-0.0584102198331181
-0.0853290385539412
-0.1006487120097809
-0.1028307782948675
-0.0978502602205936
-0.0931791252558941
-0.0951738864801580
-0.1041898254984242
-0.1174085479890796
-0.1288936967190113
-0.1347613998806946
-0.1330800857918910
-0.1264062077273367
-0.1178712870663222
-0.1116212869849726
-0.1093838777220736
-0.1117846148386076
-0.1155252308189123
-0.1171620558389305
-0.1139571987086168
-0.1070737447990274
-0.0949681261006361
-0.0687747541731343
-0.0077328584903283
0.1104153447322743
0.2938884766017070
0.5161886426325399
0.7136667764404839
0.8021239582700307
0.7166172288827006
0.4455549863900570
0.0463431113495290
-0.3757014391558363
-0.7078104582298640
-0.8778092292025361
-0.8773297164511403
-0.7561917037910255
-0.5859672066363335
-0.4252936744737707
-0.2998859095258845
-0.2105027941098620
-0.1472384699434209
-0.1039703109919550
-0.0778082009750798
-0.0665269680940142
-0.0628744740182284
-0.0592488799316068
-0.0510752843657940
-0.0414234006561867
-0.0351383351801554
-0.0353952825391912
-0.0391349341391996
-0.0414666838220332
-0.0372648247856178
-0.0261910734386961
-0.0109984952756836
0.0020824964922141
0.0088295390488794
0.0073480952123454
0.0008527606149072
-0.0057109592337185
-0.0056705162988261
0.0039727021623675
0.0220551794045377
0.0413375042704665
0.0547546483952823
0.0579032197900640
0.0531229312997563
0.0456545298001507
0.0425967823173403
0.0474762063392215
0.0605738772489931
0.0771348868332855
0.0922010287047325
0.1013875376246906
0.1049473565248954
0.1059187177938578
0.1109936934561952
0.1247719545410338
0.1478837957671836
0.1737348545380296
0.1944859372587754
0.2046027218892413
0.0383197644333133
0.0625769617855843
0.0836980271244039
0.0947151916806600
0.0944888988609035
0.0866085084557296
0.0783091149325902
0.0733622601467513
0.0721095651125646
0.0698930335972599
0.0616277173917454
0.0424599633273421
0.0130429583280906
-0.0218563499251775
-0.0534564867119281
-0.0754799858532643
-0.0850427673226787
-0.0858376665550060
-0.0842441407569103
-0.0879179761211218
-0.0992212367830364
-0.1157854952663392
-0.1304305302986368
-0.1377823713382626
-0.1352351503386119
-0.1261579009021578
-0.1161538543162794
-0.1120343806081624
-0.1157054361945098
-0.1249074095917828
-0.1328460890378351
-0.1342937957596866
-0.1263514731376788
-0.1121433964284280
-0.0978834047833523
-0.0918138037660629
-0.0959659632503160
-0.1027136969221952
-0.0906586365681079
-0.0320639901235212
0.0962886444916349
0.2923494001729527
0.5169432953939889
0.6945442960346551
0.7417765903090500
0.6047126919500562
0.2930617283906076
-0.1175305002817781
-0.5114820484038982
-0.7843491272506657
-0.8841934680266144
-0.8284755803545308
-0.6809427722336747
-0.5140681934460155
-0.3737816905211780
-0.2724990240402433
-0.1994006129594994
-0.1424337538857349
-0.0975370366511781
-0.0691155712718848
-0.0588759800087200
-0.0626281460287549
-0.0700089023457980
-0.0725313564577551
-0.0651937263621740
-0.0494925931334210
-0.0298203361797443
-0.0133962584790747
-0.0050082261624954
-0.0071565737062274
-0.0170546039190092
-0.0293989922455699
-0.0356851989105295
-0.0301435764963074
-0.0117597935135638
0.0119906495351569
0.0311198768934025
0.0370904971671247
0.0296755332893905
0.0149313945434807
0.0038116756735735
0.0039914368060946
0.0175522295348440
0.0384006098895894
0.0587113519564785
0.0714816828858590
0.0753794330015117
0.0724097955978023
0.0687290459935121
0.0694875523610530
0.0779273842750904
0.0916873806330618
0.1068095298735343
0.1184323877669837
0.1253417046595456
0.1284991086520955
0.1329917852463475
0.1436516348106209
0.1642977471213147
0.1934403092956780
0.0808993286252916
0.0685887062304629
0.0499858137052198
0.0337811162012132
0.0245869417343351
0.0223773057039814
0.0200137299544490
0.0088543183735345
-0.0178408478466137
-0.0573349605887966
-0.0995100421762825
-0.1301523438197476
-0.1410478991892101
-0.1323047360341299
-0.1142554674247429
-0.1001084638199472
-0.1010487053081321
-0.1180177734592484
-0.1435754024570265
-0.1647672462161948
-0.1724854773878660
-0.1634930335766215
-0.1433354624381997
-0.1213352637838293
-0.1079489359076271
-0.1070403686870773
-0.1159561912582640
-0.1256531264983521
-0.1282990044264627
-0.1195340487777148
-0.1027111644047282
-0.0844149347768224
-0.0701921242977541
-0.0538851586570392
-0.0165672132176476
0.0686639894144827
0.2173775677356731
0.4173830722284257
0.6176383368531787
0.7415970444915353
0.7157596821647529
0.5091722971629106
0.1533050119709656
-0.2627975960097408
-0.6291576968804298
-0.8571974955628631
-0.9156319439119303
-0.8343262922263905
-0.6827338441567697
-0.5282425249050846
-0.4080995780047727
-0.3222438045138866
-0.2532519201730135
-0.1864885411010631
-0.1234170299378158
-0.0747265365368720
-0.0502640482161587
-0.0479893705229644
-0.0574769487242266
-0.0656336044863040
-0.0657973238883831
-0.0564118002421987
-0.0406523189097544
-0.0217730401879734
-0.0043905501891180
0.0085784077354451
0.0143919030421415
0.0133150165720398
0.0068521642969026
0.0002070904081243
-0.0016135682066418
0.0051923683596855
0.0186390082334183
0.0342312463430353
0.0459209851063782
0.0512971007598495
0.0505215894337220
0.0479890987120705
0.0476627916404051
0.0524918463178055
0.0610905816321672
0.0714575233327103
0.0805833218378064
0.0873601953482863
0.0904703836984018
0.0914299807815809
0.0926899703088961
0.0985279428716104
0.1103794099662306
0.1275913375020995
0.1453986792165470
0.1591185630473171
0.1650332604672251
0.1653646279771653
0.1657454250180971
0.1737686147395964
0.1924093322684514
0.2205095705436260
0.2517511937384464
0.2798994401347789
0.0124356938325324
0.0114904367785623
0.0231030033465987
0.0482245037107966
0.0800803982156917
0.1061683258045698
0.1167311464031738
0.1076365822595225
0.0844737331200146
0.0574946840478753
0.0375619497079261
0.0281630767349822
0.0262255676014408
0.0230154358697602
0.0116612703851940
-0.0106094436254798
-0.0389122096640326
-0.0657808860428329
-0.0839126556357596
-0.0917072215934147
-0.0907542925968421
-0.0860256740162473
-0.0819957756141753
-0.0835580408578329
-0.0919729333554367
-0.1057995202149194
-0.1193642912916141
-0.1276220674883625
-0.1269390339436191
-0.1193127705641426
-0.1097543287373195
-0.1052580184720578
-0.1081731161172300
-0.1165124622211676
-0.1238207622000227
-0.1253045060833489
-0.1176957708987442
-0.1002105866750233
-0.0683322775291958
-0.0122452324490400
0.0839486875626739
0.2292992749939966
0.4120271958068154
0.5877332540340965
0.6903546965213848
0.6569916947323221
0.4625436847598839
0.1369667601996479
-0.2386200600997289
-0.5654398831363001
-0.7660100385913257
-0.8154700259772527
-0.7413228430143943
-0.6023705679771939
-0.4541887706270817
-0.3293166293760356
-0.2331702602118327
-0.1600202066104900
-0.1054179997290053
-0.0718733200292667
-0.0594608567193336
-0.0613939466881038
-0.0641374552526090
-0.0585222468606845
-0.0438889882025488
-0.0288263503215559
-0.0215199169070939
-0.0247530740109960
-0.0319296072113493
-0.0343131515278289
-0.0262639227984232
-0.0109761242326862
0.0047227018868623
0.0137893107902277
0.0146256306813777
0.0088719131549660
0.0020370518878997
-0.0009820936896637
0.0038090704082021
0.0155726322993608
0.0312433364434926
0.0451893022747551
0.0537010112339538
0.0547463616270404
0.0513435685434653
0.0482252507037706
0.0508014586196417
0.0598529131267992
0.0733426178203855
0.0861163506590784
0.0948217440079355
0.0978556980896007
0.0984776244742126
0.1011245995924670
0.1105198750290843
0.1269430422251178
0.1483370151449734
0.1694852148075372
0.1861367136142861
0.1949836105150859
-0.0100550706319322
0.0148533489250078
0.0470987421222860
0.0755184467645318
0.0910372609853215
0.0885985082038120
0.0712908047421172
0.0461573766039667
0.0223323085379074
0.0047027256548522
-0.0053964117024299
-0.0121848538574089
-0.0209847264094532
-0.0369739862226521
-0.0592094699783672
-0.0826001473407871
-0.0991181993660253
-0.1048997400909892
-0.1003289350065322
-0.0919352140381627
-0.0872291983773311
-0.0928314370211301
-0.1083252704030415
-0.1283783713082305
-0.1441722180571241
-0.1505890912434949
-0.1462357611810402
-0.1353851727181592
-0.1234697241551666
-0.1164941762865333
-0.1158886530193022
-0.1201718459917463
-0.1244031190636135
-0.1251437011527334
-0.1195671469437377
-0.1081765872307618
-0.0915429751933351
-0.0695991292510730
-0.0347588334792456
0.0271287792389485
0.1327377999971055
0.2849240731923307
0.4607755710193550
0.6055934634375473
0.6505899250104114
0.5421708490128686
0.2760828777918568
-0.0936996223568010
-0.4711846810206342
-0.7599451350404033
-0.8999364075643405
-0.8898000639644779
-0.7763140759210099
-0.6261808966010449
-0.4893687660913210
-0.3842602414164391
-0.3024073064707513
-0.2310312760270816
-0.1656401849413132
-0.1132102746999964
-0.0808093258911052
-0.0693071519926465
-0.0697768275320881
-0.0719503241340882
-0.0691262908269044
-0.0624149589004961
-0.0542468474385312
-0.0461461435297539
-0.0361625675488354
-0.0243367344290622
-0.0124342249797658
-0.0052377577906426
-0.0050843398543264
-0.0113801260241081
-0.0178760861092917
-0.0181765569279507
-0.0081982302189113
0.0089792862028270
0.0273099554978712
0.0395874019546210
0.0430830336292486
0.0383949979787416
0.0310502866144888
0.0265577396841101
0.0293667192076958
0.0387083466463676
0.0518930361518151
0.0641584950357095
0.0726545083895303
0.0752623307716847
0.0739934271160893
0.0724495638889637
0.0758636099566359
0.0858224339081433
0.1013442029728784
0.1175391267748604
0.1303356837193972
0.1368165916089636
0.1391355795369506
0.1412981814562739
0.0082053934364042
0.0066198883911347
0.0148669963512869
0.0344295741613875
0.0604747243817938
0.0829523252030125
0.0934711577450425
0.0869391900165239
0.0661974150432977
0.0389612960653022
0.0157805907652927
0.0023719367908283
-0.0010581448814807
-0.0013172576774789
-0.0062301767671197
-0.0220153031867670
-0.0474990872558031
-0.0768523797083691
-0.1013854114439279
-0.1160844608251442
-0.1190338259755843
-0.1133498932286625
-0.1039026183952377
-0.0978133061674181
-0.0993502799710551
-0.1097562160667037
-0.1245403529539797
-0.1374860327669117
-0.1415805205071548
-0.1350590400025811
-0.1212455232583244
-0.1087323982455145
-0.1035244274353625
-0.1068972641667918
-0.1135304312666495
-0.1176608605139016
-0.1139478150852466
-0.0995940389867341
-0.0691813990256000
-0.0141305458732708
0.0781450421873148
0.2136454382155416
0.3820475930354673
0.5477524729689067
0.6584782706963963
0.6616609934060220
0.5291978294853668
0.2709362469376262
-0.0616177772952781
-0.3925571784346061
-0.6458025371817748
-0.7742446541651505
-0.7724647636017488
-0.6751877082274346
-0.5348356173372864
-0.3984499769485980
-0.2892782571599046
-0.2098312231735352
-0.1521359984188964
-0.1111606611301181
-0.0844538998965037
-0.0703919535548037
-0.0636355021908511
-0.0593016184650413
-0.0536856360554146
-0.0474576746849433
-0.0419849509857755
-0.0390748883800151
-0.0369312086242732
-0.0329667365314487
-0.0241621057989097
-0.0115278125957501
0.0021998681408912
0.0120029338316375
0.0148561080641857
0.0094717217993148
-0.0001413268845973
-0.0080057794206892
-0.0076149775388909
0.0022053538026179
0.0187846428230038
0.0353704932119986
0.0464532094550054
0.0484823250933719
0.0439149513409161
0.0381153338025449
0.0380434804688543
0.0461440912352867
0.0610006409342821
0.0762837145923444
0.0861400043374012
0.0867933701120488
0.0811993698317658
0.0755400156636137
0.0771523946167430
0.0885406326105949
0.1090328466377664
0.1339971539508812
0.1585599927342446
0.1769173017167981
-0.0193141038370265
0.0052408917396517
0.0395389348854538
0.0711596527737834
0.0889485876169760
0.0873353172237764
0.0705846310135785
0.0472891115925615
0.0275267909257995
0.0158640510857394
0.0114268005430643
0.0070074361760308
-0.0039382996657013
-0.0249977637296520
-0.0526385311562707
-0.0799281569902164
-0.0978038173094990
-0.1023175124241009
-0.0959190724167327
-0.0886863792442921
-0.0897716634174613
-0.1031507707215401
-0.1233544081960180
-0.1412736867585319
-0.1476420095482643
-0.1403594058656949
-0.1238288211688037
-0.1084510553286409
-0.1023439564419526
-0.1087578922825467
-0.1227969229160493
-0.1364518235970651
-0.1406137401073735
-0.1320012373983124
-0.1134169514438469
-0.0936025482447203
-0.0768557383489716
-0.0567917157707225
-0.0123181689799263
0.0805082869384188
0.2324770189735499
0.4210822385934196
0.5889438384647817
0.6599232931716446
0.5764880749953685
0.3295240992430036
-0.0294290530572713
-0.4086309909367832
-0.7102753339972405
-0.8703208476870169
-0.8777143514568509
-0.7727487793153134
-0.6186874940631004
-0.4720450821004946
-0.3602107516784409
-0.2835798784812929
-0.2272519676538287
-0.1793567712024620
-0.1364964703773636
-0.1033172791716958
-0.0825775653017877
-0.0731499850336038
-0.0694331231478357
-0.0676515153900991
-0.0650754455787612
-0.0612953209491233
-0.0547797186276839
-0.0454691786628292
-0.0335270380482248
-0.0224116062291378
-0.0156543340382714
-0.0163129886171511
-0.0218188903474199
-0.0267641369903635
-0.0246330117616452
-0.0143357530388374
0.0011066119037687
0.0143947610823369
0.0198399940857313
0.0145271574320635
0.0025046844666076
-0.0090551136858598
-0.0119192920210987
-0.0032328983647949
0.0155864135072492
0.0379184292312503
0.0570023767612749
0.0670109843046955
0.0682010446387940
0.0645910166959874
0.0630961081479848
0.0674932347395356
0.0791637579239023
0.0951589665834948
0.1117417595343156
0.1240476705654093
0.1309916805837165
0.1343694055917987
0.1401005427583783
0.1531502834123031
0.0361148781249985
0.0502300740613443
0.0599088848999150
0.0665851523210849
0.0720011932663133
0.0757899051235998
0.0786326184919150
0.0801190676168722
0.0799763961785407
0.0757804129078507
0.0669099228329549
0.0537211046054589
0.0389907020658338
0.0238558985052932
0.0092807091354997
-0.0056905800716215
-0.0210227780915528
-0.0373487756986570
-0.0533503065752622
-0.0683254627888692
-0.0809207152551478
-0.0916136113738991
-0.0996303953706689
-0.1046488709505258
-0.1054468071689053
-0.1033002910950987
-0.0998467542342762
-0.0983739026164835
-0.1002695044791602
-0.1057556350583940
-0.1109921344878980
-0.1118667665519566
-0.1050421474663263
-0.0922828535917893
-0.0775489799249897
-0.0669936505211548
-0.0644297189864698
-0.0705917606760132
-0.0772147293643194
-0.0674593353328152
-0.0173497957981631
0.0920009907388300
0.2628660662443661
0.4672345525504112
0.6483383411166821
0.7347188765383326
0.6720752639278904
0.4494707178736172
0.1122845051657872
-0.2540352667951689
-0.5547050521847567
-0.7244762906152248
-0.7480965953687772
-0.6598442393169156
-0.5166114927016041
-0.3703620786611184
-0.2490118866497176
-0.1598853442910299
-0.0987792011930346
-0.0617816021446043
-0.0452842782756605
-0.0451643121474271
-0.0523830434180616
-0.0576600648756759
-0.0544352463722652
-0.0436271418580428
-0.0291244906249001
-0.0159065659354671
-0.0059089390304266
-0.0005903078300783
0.0008150171536724
-0.0006638094111071
-0.0016003072923228
0.0006377702889146
0.0084282712523112
0.0200321566081398
0.0314922801152759
0.0368811082810743
0.0345988150691655
0.0273076214423515
0.0221104168882622
0.0240560798265020
0.0350990990430804
0.0511671453909742
0.0659761010514131
0.0724402941803767
0.0690198412889842
0.0593426776472642
0.0521498763040896
0.0543282472207877
0.0689803274893817
0.0918787954161738
0.1156537674211295
0.1321228341397962
0.1388871379408620
0.1382385257154439
0.1367056638143085
0.1392756383742031
0.1495687255810749
0.1670524728863271
0.0351546591681634
0.0653096932235691
0.0846382274767555
0.0854393887484808
0.0695301847566790
0.0450215167067721
0.0241653394509197
0.0147449299766024
0.0173922911742611
0.0230984682530289
0.0210766456190397
0.0037735608618358
-0.0266712361419314
-0.0618472060788677
-0.0896865650126201
-0.1030017780444760
-0.1013711965574764
-0.0929396153672489
-0.0870393378937362
-0.0907656619097048
-0.1037920410530327
-0.1213343381166948
-0.1347588284163171
-0.1381871883495609
-0.1299957866031199
-0.1157966684783318
-0.1027586906523703
-0.0974027383345849
-0.1007760111592842
-0.1107852184630056
-0.1212156332531091
-0.1264419194526042
-0.1221873374561255
-0.1099562643510596
-0.0940948868868462
-0.0807682521783695
-0.0705064137918165
-0.0553249783769916
-0.0150914296341418
0.0724140780669455
0.2169646378014445
0.3966892555302967
0.5569253677154310
0.6250238787576586
0.5449831017920451
0.3065107967794343
-0.0404402094816397
-0.4044390172627390
-0.6886613006434783
-0.8334358893243525
-0.8346553514952368
-0.7377852716992619
-0.6051625342813106
-0.4847616505272285
-0.3908131171359571
-0.3132793024881621
-0.2370140210063734
-0.1608984320037744
-0.0960898265597973
-0.0567088211478807
-0.0461029004533766
-0.0564327636961547
-0.0721262859911947
-0.0809447460971251
-0.0773428563052891
-0.0644737272601313
-0.0475506211721558
-0.0324166275917629
-0.0221888805484709
-0.0194114618446047
-0.0226743807395954
-0.0282603287006606
-0.0295599307826387
-0.0228907387665808
-0.0079761335944190
0.0094372212957360
0.0224551289778857
0.0252089871525421
0.0188349889162391
0.0088403577323059
0.0030321703805229
0.0045284925813382
0.0127033111764089
0.0228398944007103
0.0314796647474321
0.0363925551868622
0.0393968865830053
0.0424594658925501
0.0476671723992982
0.0542055553699595
0.0620479746315340
0.0709016209615269
0.0819803421995379
0.0944229374577589
0.1073545172156163
0.1184991844365958
0.1278849950273401
0.1368138277888318
0.1500218343879680
0.1704538995744591
-0.0035968135856702
-0.0050120745369432
-0.0015306436544789
0.0106598741923806
0.0294051856054681
0.0494880068116409
0.0625480151508823
0.0629352146798167
0.0487875006653596
0.0253353760904795
0.0006763868102788
-0.0163237202619675
-0.0233313101086691
-0.0246675210660660
-0.0303090120995532
-0.0462867631986855
-0.0716473085524492
-0.0974920361552082
-0.1153423831153099
-0.1204656637323448
-0.1157776962589929
-0.1074024693925063
-0.1027920168817199
-0.1049721934898807
-0.1139628485468491
-0.1261034653549259
-0.1380343342396931
-0.1452805363577290
-0.1455192481313573
-0.1380029634641971
-0.1263548882105471
-0.1145716292600547
-0.1067000014792872
-0.1033714618227359
-0.1043731647167951
-0.1072877590933944
-0.1101021189010351
-0.1076042513364573
-0.0902362710823468
-0.0399901147998218
0.0617947023214903
0.2222178736677370
0.4189167901646312
0.5977828608189455
0.6853193188773499
0.6216623777781923
0.3913821363205618
0.0417521563920594
-0.3333791121725197
-0.6310258598134576
-0.7852232376947513
-0.7881360938603151
-0.6837571262983965
-0.5343900401443250
-0.3904145125563200
-0.2733688732142454
-0.1848426073110310
-0.1200405341752862
-0.0790105130535932
-0.0616813193706783
-0.0633756159766637
-0.0715824871476596
-0.0741545406545109
-0.0642808085442672
-0.0453932411391783
-0.0258362631929120
-0.0146060488387591
-0.0137627386555002
-0.0198558214348621
-0.0253272700287686
-0.0251136746761863
-0.0167505119585316
-0.0027832205960203
0.0124129668049342
0.0227398175724900
0.0258068730631353
0.0227474117569901
0.0193527630943937
0.0205188765011998
0.0291130667297431
0.0423148779650260
0.0550467382331968
0.0614505439309251
0.0608378878202640
0.0562054603812991
0.0535332765902092
0.0560954688380176
0.0652966143323614
0.0790762497000031
0.0951122439932401
0.1097228187994048
0.1212567415660625
0.1286871968333552
0.1339001024732455
0.1394379687729640
0.1500210310034825
0.1680635315272211
0.1928690928297190
0.2180551096238326
0.2373479491459866
-0.0113335868711164
-0.0167658124588789
-0.0104659580432580
0.0124557193007782
0.0464055100879585
0.0795899660270047
0.0985914297982047
0.0975513489571712
0.0793869205006626
0.0556578504708907
0.0375455049321954
0.0307556531376535
0.0308987401316453
0.0293640295217892
0.0176503970150819
-0.0058661622125219
-0.0371317334026772
-0.0665847513103448
-0.0858384952759043
-0.0903965615755549
-0.0840080955340896
-0.0745500669469921
-0.0715343744784410
-0.0795417576843561
-0.0979172160731613
-0.1190225156463469
-0.1339707439741583
-0.1358721041562599
-0.1256916619215755
-0.1095938242938053
-0.0970592949364712
-0.0938983023670090
-0.1009504263421412
-0.1115382767845468
-0.1172035073632537
-0.1116356670945516
-0.0968785977071172
-0.0793734439285224
-0.0647136195539977
-0.0469621239983006
-0.0073181881610175
0.0807655144070567
0.2307764424313745
0.4242806485921543
0.6017702276722536
0.6829654083043282
0.6026358313599141
0.3500410462135393
-0.0189641157551864
-0.3991405610737702
-0.6829384778330583
-0.8053316458320511
-0.7688788717634745
-0.6289983135108945
-0.4593448072776107
-0.3136917984832439
-0.2126952806161403
-0.1494678728155546
-0.1099745099931591
-0.0841293865659085
-0.0692756291870701
-0.0624125009926081
-0.0590956345447632
-0.0538922028381497
-0.0462924921216133
-0.0382401685683269
-0.0325631586640642
-0.0282349472909569
-0.0232606735224306
-0.0151032412511836
-0.0047769467562107
0.0053127069768932
0.0112404267300188
0.0122646433424722
0.0096621602565788
0.0076220486002950
0.0090749121559905
0.0163985014668922
0.0283431222037992
0.0417805872331453
0.0508146532949272
0.0520655602355840
0.0454306562743256
0.0364951642019028
0.0317901174734317
0.0371010886348072
0.0521982805183156
0.0724438090744857
0.0895583906706524
0.0984222593958183
0.0978791661868207
0.0925644185400592
0.0885617516170172
0.0930043987208488
0.1089591050055320
0.1348852929332491
0.1626264685677027
0.1837836832537504
0.1931345675547744
0.1936158977799965
0.0277419848867471
0.0546741483369831
0.0746243443950646
0.0802575982162375
0.0712318000048574
0.0513145413787823
0.0295450479199357
0.0146195489822296
0.0119876852712784
0.0173201098275304
0.0203854709283000
0.0093136696363690
-0.0194406392784491
-0.0601384469024236
-0.0982629321864155
-0.1209415584115636
-0.1224859365102351
-0.1093388932964130
-0.0932645583177380
-0.0864631883225594
-0.0935273445293421
-0.1121172423941849
-0.1325803959091595
-0.1456182420170726
-0.1456355134020355
-0.1356932299287099
-0.1226166754253696
-0.1145809429694273
-0.1148363960652162
-0.1227111613490659
-0.1319678379713192
-0.1362479927798053
-0.1306370461004528
-0.1166136888657265
-0.0989130224145386
-0.0845659001832454
-0.0751247041366604
-0.0630831043086741
-0.0269419982384374
0.0588646419354968
0.2079274398738245
0.3996225104449972
0.5760509439945468
0.6575738680122155
0.5812045577287510
0.3333906281036670
-0.0340307402755708
-0.4243451067876523
-0.7343775493938413
-0.8986064864670408
-0.9081813146559691
-0.8064227123634048
-0.6578098982170907
-0.5171489616726531
-0.4073280039298612
-0.3243156333140222
-0.2528116340627482
-0.1858485503151825
-0.1268082151918151
-0.0850480222357217
-0.0646419390545440
-0.0630869021850928
-0.0709815969443865
-0.0794305726008581
-0.0816771596048235
-0.0765457991408861
-0.0645836716468482
-0.0491773796126239
-0.0338328903459995
-0.0239517778727925
-0.0223527445883280
-0.0296792839831559
-0.0414935918985278
-0.0518831008562117
-0.0534789861892819
-0.0435311848752755
-0.0244483693823395
-0.0053751054066849
0.0055904897389231
0.0048776383376552
-0.0022372512168389
-0.0072725850907845
-0.0019079105851467
0.0146427351774892
0.0370633665850568
0.0554333739133943
0.0638429035387623
0.0615249549666206
0.0541610596898323
0.0479104210237589
0.0489371342782144
0.0592060548059263
0.0779884973822717
0.1000590215172185
0.1205949002534426
0.1353347664743766
0.1442158408444587
0.1490698817302871
0.1556242230271780
0.1692381921214491
0.0027673053955805
0.0102621610364543
0.0284439880964584
0.0521497488795651
0.0737701479236409
0.0849561064099899
0.0821754550064765
0.0663289788817231
0.0451783146462560
0.0278185988992826
0.0212353299982752
0.0236536243517445
0.0275926748114812
0.0226127539828780
0.0035213771737450
-0.0284130595140036
-0.0635900824010411
-0.0910190965822101
-0.1023242233191571
-0.0980037584356465
-0.0844356850628102
-0.0723852186486684
-0.0701466291198264
-0.0818640112613950
-0.1030337403917684
-0.1245697252044911
-0.1361345902357718
-0.1343003686145965
-0.1220702625795129
-0.1084313239806704
-0.1010312852994437
-0.1039451897917726
-0.1133876190476330
-0.1221140161140651
-0.1223762667339132
-0.1130787127714911
-0.0981215558530677
-0.0841552782424565
-0.0704049480227946
-0.0444003133404249
0.0191232798364963
0.1426503997478355
0.3274271908321412
0.5364135827166547
0.7010476973948534
0.7445025140747896
0.6193191448501969
0.3322185557693816
-0.0496979898318246
-0.4248528429730202
-0.6958230605833648
-0.8096916321621136
-0.7719003428380243
-0.6363336683205715
-0.4714970726856481
-0.3306745807431387
-0.2337217276987263
-0.1746124491564512
-0.1361888310997514
-0.1067357699534785
-0.0815829781478626
-0.0620374629663551
-0.0489762282803058
-0.0431645248471703
-0.0424392831186229
-0.0443441082933807
-0.0447906096559317
-0.0413288626487838
-0.0315606775617900
-0.0164877274076067
0.0008710739733734
0.0142106598115494
0.0195699705030174
0.0160282607831409
0.0081547654814008
0.0013269083936978
0.0009955036779044
0.0079422143209683
0.0197958311075377
0.0305853526669925
0.0366655403630223
0.0368992077221995
0.0345933323366547
0.0331733412525432
0.0365718913095679
0.0453735692285467
0.0581345014962653
0.0699083375428827
0.0773641699703482
0.0790566627495332
0.0780460388051869
0.0781351893775807
0.0843257683533661
0.0985663762845764
0.1203291534848688
0.1442039080166771
0.1643942087000828
0.1754705463303488
0.1769700851236371
0.1722538441689474
0.0461754175347516
0.0525611084345071
0.0549570056289767
0.0569555630868743
0.0612543301562714
0.0650038829572482
0.0642853723203642
0.0554186360001959
0.0394246648009825
0.0184831325066855
-0.0035173971839682
-0.0247292678555839
-0.0428586555731687
-0.0572913843762488
-0.0668188382258858
-0.0735492325093644
-0.0809409709196651
-0.0938556057353055
-0.1117500741671959
-0.1298681176586189
-0.1404416654495108
-0.1406743515623482
-0.1324309115647893
-0.1227857554139148
-0.1175322819967304
-0.1203021498890315
-0.1286949863546056
-0.1384476031945931
-0.1442235601589334
-0.1444074826612242
-0.1384279300991391
-0.1284719695088308
-0.1168528547637164
-0.1082992914334193
-0.1055913848660374
-0.1092964075620955
-0.1126058314386305
-0.1023176457105989
-0.0576961487798547
0.0394283695107610
0.1937027667596873
0.3809878865301799
0.5490316546611174
0.6296048792246347
0.5688791424737148
0.3532335196165310
0.0245375015384712
-0.3351772238952185
-0.6345048536351180
-0.8113339908504112
-0.8503539712147283
-0.7815071398388358
-0.6547134202050218
-0.5157652344401431
-0.3884064349984193
-0.2792012012474243
-0.1878095068480443
-0.1189280532801370
-0.0781170401748967
-0.0665899754917997
-0.0745091375357954
-0.0873228301132441
-0.0914586125971905
-0.0833766773524500
-0.0674886637457626
-0.0532972046553087
-0.0459673525832089
-0.0459084729574419
-0.0482526214018390
-0.0490029898135932
-0.0444387995487607
-0.0342713409871265
-0.0194364759911513
-0.0043194330930643
0.0073531855729844
0.0117121476526109
0.0085129791040726
-0.0004266591403626
-0.0084693641084498
-0.0092759569177329
0.0008382345491202
0.0172130240734344
0.0315928024300361
0.0356344425778853
0.0287978842230619
0.0168744865623341
0.0107602895525685
0.0172212213398822
0.0362830014509487
0.0591954382936928
0.0769547579740165
0.0840223932375735
0.0829164740832152
0.0794450963794602
0.0815530509562995
0.0933780880288512
0.1157378228567023
0.1438182507261516
0.1722301614633084
0.1952200965880726
0.0033929908965024
0.0276631737032050
0.0530629390991431
0.0700529517834349
0.0737717987323770
0.0641344222862376
0.0480716059154753
0.0337314503199621
0.0281009343611577
0.0309873153875803
0.0374123404520790
0.0378801201819664
0.0251310326608419
-0.0038051558955356
-0.0424017087489236
-0.0791212267659200
-0.1014908752528013
-0.1053720485436223
-0.0947692566107622
-0.0813418056113833
-0.0758806665268715
-0.0846617349770973
-0.1038864331256905
-0.1246325917817419
-0.1370177238324683
-0.1383225818042804
-0.1310900059477116
-0.1221791557039939
-0.1164220756670931
-0.1167917227186392
-0.1212738147425907
-0.1264189117765216
-0.1272370058897419
-0.1219316724793861
-0.1105169654643091
-0.0973176446325677
-0.0869144019395849
-0.0821417262969022
-0.0753712641734430
-0.0480843236698684
0.0260092666776465
0.1642415558090520
0.3604569996657427
0.5724568840682148
0.7306016562338418
0.7602821514586476
0.6187484586368042
0.3181942086160240
-0.0703570317545567
-0.4446677285444064
-0.7094885560302259
-0.8163786770399778
-0.7765175253885926
-0.6478438741737440
-0.4966557391833834
-0.3673455808052057
-0.2699006572447571
-0.1951536292663431
-0.1320671987023878
-0.0808550813609834
-0.0476124599129741
-0.0370446736228370
-0.0436714508543812
-0.0564968233229032
-0.0640027646631223
-0.0619340475449071
-0.0506847297381027
-0.0348232566022460
-0.0184424001004462
-0.0062429574656400
0.0004104246197470
0.0017573390021801
0.0009869507156549
0.0000137465219520
0.0010921237412983
0.0042819784655911
0.0097237374085064
0.0152497626313155
0.0195424395013413
0.0205337543589700
0.0185600379552202
0.0148785402611087
0.0144402925617836
0.0212422201751474
0.0367111859406676
0.0554314443628107
0.0705294122698366
0.0763998916064332
0.0741177597546245
0.0683045539175834
0.0665480659349005
0.0732329696514566
0.0892095174148777
0.1094586856470356
0.1286053422741204
0.1419319631198837
0.1493022535331431
0.1524855934410352
0.1566713825846648
0.1662890452735099
0.0334177149365594
0.0641684109752010
0.0939125018986099
0.1113547668995010
0.1103619495105618
0.0909746518540056
0.0625963207427982
0.0373442173190457
0.0248228275558872
0.0237059868710526
0.0252212692892411
0.0175787542325946
-0.0039530650451898
-0.0363458397833820
-0.0688025400199357
-0.0916251058011597
-0.0995741686577070
-0.0960006847580610
-0.0874685796624678
-0.0822760480399334
-0.0851960353064570
-0.0982913732039250
-0.1173867164728871
-0.1358645181687932
-0.1461187090585663
-0.1460982243112845
-0.1377397613098810
-0.1274896010706759
-0.1207571186607127
-0.1217248989954491
-0.1290303264413364
-0.1385593548158247
-0.1434463679219367
-0.1399190679912337
-0.1270851464909110
-0.1100595742014181
-0.0952477214284181
-0.0869274510775451
-0.0771831458260291
-0.0458037742627415
0.0343983564530551
0.1777368454920967
0.3699640774584060
0.5585426623430908
0.6682461310521640
0.6307450875299095
0.4231414659291902
0.0835386399830637
-0.2985705870149707
-0.6212171090196991
-0.8089004463558503
-0.8418736804344424
-0.7537208143297081
-0.6087226229012874
-0.4643405031289168
-0.3504735056159660
-0.2667777416985089
-0.2014672909022315
-0.1449664476404755
-0.0979692385135956
-0.0646638811702831
-0.0485212656529521
-0.0464164567612584
-0.0527270781598410
-0.0603740014050110
-0.0653563824192334
-0.0639704750430613
-0.0553869232860701
-0.0404515047411653
-0.0247543621708935
-0.0137314790353972
-0.0114383115389462
-0.0156812695202627
-0.0211552991432365
-0.0201324232446478
-0.0097030103348947
0.0076634778263764
0.0231776332169484
0.0300354857691696
0.0258651579385985
0.0157940275468294
0.0067428480481604
0.0061290421108532
0.0162092603106356
0.0350955770813437
0.0553347038200964
0.0701699292586265
0.0747380289551843
0.0702668713303824
0.0609960775816474
0.0548319894243688
0.0575777517565078
0.0720629362964939
0.0942903256882487
0.1180557681058433
0.1360876848771275
0.1457627810342274
0.1481382262491150
0.1499542501887146
0.1576740830278287
-0.0013904540136707
0.0188827299753337
0.0382744068985797
0.0512693009296212
0.0537496623813928
0.0477287068082380
0.0375529945527411
0.0290211383785268
0.0236981586205664
0.0208116440072478
0.0153125405636246
0.0022276424639411
-0.0226121792868939
-0.0559632810262220
-0.0893414873054271
-0.1113884447970842
-0.1175216057491099
-0.1106040324247903
-0.1012312702568223
-0.0991682126927193
-0.1100805787469022
-0.1301260419080691
-0.1508395111678384
-0.1623237068221861
-0.1611938806750116
-0.1494486028945601
-0.1350541010923251
-0.1254241410390487
-0.1258067322119794
-0.1338055590142900
-0.1429475393899934
-0.1447031871832943
-0.1361560759555197
-0.1193420942937736
-0.1022414538232961
-0.0916290290364882
-0.0890756077792983
-0.0821777970434852
-0.0470118575924652
0.0445835169072164
0.2043147175474669
0.4123988734335545
0.6092223220580437
